emg0,emg1,emg2,emg3,emg4,emg5,emg6,emg7,emg8,emg9,emg10,emg11,emg12,emg13,emg14,emg15,emg16,emg17,emg18,emg19,emg20,emg21,emg22,emg23,emg24,emg25,emg26,emg27,emg28,emg29,emg30,emg31
0.01464,0.62991,0.03101,0.00894,0.06409,0.01485,0.04653,0.45902,0.04217,0.02511,0.04106,0.31318,0.02872,0.03893,0.02506,-0.00871,0.75966,0.02034,0.00869,0.00160,0.57384,0.00543,0.36496,0.76660,0.58820,0.72574,0.67719,0.67380,0.77339,0.00561,0.32020,0.66820
-0.01993,0.53177,0.00677,0.01442,0.02605,0.00206,0.02048,0.67278,0.03410,0.03864,0.01273,0.32220,0.02950,0.01498,-0.00538,0.03953,0.57579,0.06516,0.03716,0.01079,0.42379,0.02365,0.62846,0.28066,0.69198,0.38232,0.68761,0.39283,0.47488,0.06124,0.66395,0.31682
0.06841,0.57076,0.00831,0.00993,0.01947,0.02565,0.02718,0.53163,0.05337,0.06964,0.04714,0.50313,-0.00737,0.03826,-0.00243,0.02473,0.56498,0.01533,0.06277,0.02638,0.51298,0.02960,0.40829,0.57995,0.62537,0.60916,0.57855,0.62008,0.61816,0.04529,0.66653,0.31911
0.01428,0.41314,0.05182,0.04385,0.01976,0.02932,0.01583,0.35124,0.04915,0.03163,0.01771,0.68278,0.03889,0.01245,0.03168,0.00318,0.72306,-0.01094,0.03822,0.02779,0.54366,0.03915,0.58580,0.70993,0.50446,0.63577,0.39432,0.55616,0.48792,0.01606,0.71165,0.39041
0.01921,0.54867,0.03369,0.02934,0.00944,0.05009,0.03130,0.29545,0.07047,0.04546,0.04296,0.39445,0.02470,0.02041,0.01808,0.03444,0.25047,0.00785,-0.00680,0.01537,0.38283,0.05455,0.64125,0.44199,0.53231,0.39197,0.26152,0.44510,0.43281,0.02356,0.53909,0.39264
0.02868,0.22896,0.03089,0.02394,0.04942,-0.01787,0.02552,0.44189,0.01381,0.00754,0.03049,0.33283,0.00618,0.08840,0.05046,0.00834,0.45301,-0.00076,0.03205,0.04617,0.45956,0.03962,0.49699,0.27786,0.63370,0.48684,0.48311,0.76496,0.32262,0.02413,0.68793,0.26889
-0.02150,0.47560,0.04168,0.04865,0.04271,0.02765,0.02326,0.34120,0.00861,0.02713,-0.03442,0.54979,0.02383,0.04822,-0.01250,0.01831,0.66770,0.06898,0.00690,0.00524,0.42323,0.00451,0.35549,0.71558,0.32205,0.61368,0.55272,0.53630,0.56377,0.02043,0.63810,0.38187
0.03312,0.24219,0.02265,0.01346,-0.01407,0.03966,0.03244,0.42109,0.03966,0.03869,-0.01151,0.34234,0.02539,0.03351,0.04567,-0.01837,0.70191,0.01053,0.02608,0.00961,0.42511,0.00374,0.33498,0.77234,0.34725,0.37158,0.51277,0.55703,0.35158,-0.00887,0.59440,0.54887
0.01293,0.47186,0.00848,0.00253,0.01994,0.02388,0.05390,0.62982,0.03419,0.03162,0.00311,0.47678,0.01523,0.02149,0.00980,0.00723,0.37148,0.08303,0.02449,0.01553,0.57749,0.07751,0.55982,0.65846,0.66953,0.48528,0.53236,0.72008,0.36055,0.04084,0.36779,0.59350
0.01755,0.70900,0.01000,0.00981,0.01944,0.01771,0.01206,0.66696,0.03638,0.02432,0.02601,0.26937,0.05226,0.03437,0.05526,-0.00165,0.42247,0.02011,0.05169,0.04108,0.26885,0.00297,0.45423,0.68232,0.53689,0.26278,0.54520,0.60523,0.46375,0.03619,0.70549,0.30326
0.05448,0.39048,0.03034,0.03104,0.01379,0.01037,0.06497,0.63336,0.01196,0.01424,0.00561,0.31818,0.03854,0.00728,0.00356,0.01498,0.50273,0.01239,0.05256,0.03476,0.44595,0.02033,0.25307,0.71580,0.34130,0.40617,0.65680,0.64627,0.39834,0.03669,0.29294,0.41947
0.03912,0.42763,0.04586,0.02282,0.03099,0.01432,0.03498,0.57768,0.02466,0.02811,0.05266,0.33063,0.03613,0.02631,0.04397,0.00410,0.38033,0.00332,0.03019,0.04328,0.65290,0.05036,0.69677,0.46355,0.66431,0.61346,0.24494,0.72618,0.47613,0.01457,0.33098,0.32038
0.00330,0.60400,0.04726,0.03088,0.04854,0.02406,0.03717,0.47065,0.06826,0.02053,0.01927,0.42653,0.01623,-0.02844,0.05935,0.03597,0.72144,0.04091,0.05657,0.05736,0.37822,-0.01585,0.53636,0.29035,0.46375,0.73166,0.36007,0.23668,0.50773,-0.00025,0.40062,0.52352
0.00729,0.66819,0.03781,0.05504,0.01018,0.06060,0.02780,0.48605,0.04225,0.03435,0.05071,0.27934,0.00010,0.01130,0.00405,0.04745,0.63893,0.00945,0.04349,0.05999,0.50173,0.04029,0.25761,0.52962,0.78696,0.71454,0.45158,0.39366,0.39538,0.01692,0.66586,0.27979
0.00460,0.39563,-0.00124,0.04699,0.01509,0.02867,0.01902,0.40275,0.05621,0.05054,0.02329,0.67134,0.02595,0.04296,0.09174,0.04842,0.40095,0.08136,0.01306,0.00411,0.59849,0.05011,0.71344,0.33066,0.25968,0.47422,0.41391,0.66110,0.29113,0.05679,0.71802,0.36192
0.05334,0.77080,0.02861,0.01973,0.04950,0.04693,0.03270,0.64119,-0.01498,0.02176,0.02952,0.36886,0.04009,0.02790,0.00561,0.00147,0.24642,-0.00937,0.06339,0.01219,0.49254,-0.01513,0.49072,0.69632,0.73090,0.71959,0.70852,0.39796,0.42663,0.02123,0.33331,0.55346
0.01990,0.44839,0.04555,0.02518,0.03057,0.03671,0.00662,0.59218,0.06487,0.02414,-0.02120,0.41243,0.04498,0.02672,0.05026,0.03643,0.57012,0.01452,0.02501,0.06330,0.29049,0.01388,0.37282,0.31455,0.63067,0.32169,0.62420,0.69865,0.45254,-0.00165,0.58936,0.49394
0.04735,0.32937,0.02881,0.05345,0.00156,-0.00258,0.03047,0.46177,0.00684,0.05274,-0.00471,0.44688,0.06743,0.03644,0.06153,0.01746,0.30412,0.03501,0.02451,0.03389,0.24234,0.02829,0.32533,0.31582,0.47453,0.64522,0.62167,0.72159,0.59939,0.03057,0.57365,0.62786
0.03472,0.54383,0.00273,0.02834,0.00504,0.02359,0.03786,0.74798,0.02731,0.06391,0.03846,0.46233,0.01690,0.04056,0.03078,0.07468,0.29650,0.03367,0.04110,0.03722,0.53024,0.03376,0.35824,0.36607,0.37260,0.35700,0.31573,0.28045,0.47882,0.02763,0.35852,0.56432
0.02869,0.27843,0.03842,0.00568,-0.00248,0.01930,0.04253,0.30251,0.04435,0.03155,0.01612,0.60434,0.01990,0.05136,0.02177,0.04711,0.28762,0.01466,0.02989,0.05045,0.67880,-0.00120,0.40817,0.30462,0.61464,0.64063,0.39985,0.63304,0.27441,0.03978,0.65365,0.50304
0.01292,0.45323,0.06395,-0.00781,0.05282,0.02357,0.06359,0.45894,0.02045,0.05343,0.01063,0.44782,0.03355,-0.00434,0.01947,0.03572,0.42838,0.02309,0.02642,0.01712,0.32774,0.03924,0.64821,0.62198,0.40080,0.69962,0.59184,0.48960,0.76956,0.02869,0.72405,0.41742
0.06298,0.60509,0.02842,0.38705,0.07789,0.03053,0.05162,0.29639,0.03339,0.03642,0.04483,0.27550,0.05425,0.00717,0.02247,0.01016,0.63615,0.01010,-0.00054,0.04950,0.64481,0.07621,0.58574,0.36378,0.39650,0.45337,0.69601,0.71789,0.28596,0.03305,0.40468,0.72219
0.07410,0.68727,0.03978,0.63977,0.01185,0.07479,0.03398,0.66621,-0.03165,0.03540,0.01402,0.32498,0.04153,0.03824,0.02814,0.00095,0.73296,0.01068,0.01298,0.04636,0.53971,0.05548,0.72891,0.51362,0.62732,0.69389,0.71623,0.44206,0.56333,0.04889,0.29384,0.42980
0.00221,0.66654,0.03896,0.56528,-0.01224,0.02041,0.03626,0.51037,0.06516,-0.00448,0.00323,0.45780,0.03321,0.03915,0.03856,0.03299,0.61476,0.00935,0.03408,0.02606,0.58349,0.02084,0.68273,0.41402,0.38471,0.26883,0.24669,0.64586,0.34129,0.01424,0.61799,0.73713
0.02989,0.45198,0.02162,0.59814,0.04554,0.07034,0.02078,0.75966,0.04856,0.00315,0.03597,0.66039,0.02421,0.01833,0.05225,0.02938,0.62649,0.01521,0.02485,0.05109,0.72739,0.01814,0.75042,0.55721,0.66118,0.34554,0.67008,0.50189,0.35129,0.06045,0.74914,0.63941
0.03751,0.68742,0.04664,0.58582,0.04495,0.00250,0.02498,0.34431,0.05046,0.04956,0.06443,0.55584,0.01976,0.09146,0.06094,0.01641,0.56682,-0.01609,0.02766,0.05057,0.57272,0.03408,0.70219,0.68778,0.49163,0.56679,0.51169,0.52595,0.30425,0.04743,0.71109,0.56592
0.05399,0.36237,0.02097,0.64627,0.03980,0.06642,0.05582,0.65791,0.00554,0.06256,0.03280,0.44789,0.05986,0.05385,0.02194,0.04461,0.29079,-0.00500,0.00663,0.01505,0.49944,0.02264,0.46919,0.56428,0.60262,0.31325,0.42800,0.61648,0.48420,0.02427,0.55216,0.52601
0.03330,0.51193,-0.01012,0.29542,0.03238,0.03950,0.05997,0.48200,0.00834,0.07374,0.02616,0.55975,0.03083,0.04391,0.04359,0.08109,0.63456,0.00914,0.02186,0.04549,0.61788,0.04647,0.48809,0.50226,0.62639,0.53079,0.43707,0.49520,0.42636,0.03092,0.72361,0.46236
0.02352,0.67407,0.00044,0.60984,0.06098,0.05193,-0.00624,0.43639,-0.00087,-0.00262,0.03819,0.61074,0.03038,0.01316,0.03080,0.03871,0.43892,0.03034,0.02390,0.01447,0.38222,0.05549,0.46193,0.39795,0.72988,0.38837,0.41691,0.57486,0.47175,0.02593,0.36037,0.34992
0.03462,0.72934,-0.00672,0.57384,0.03564,0.02982,0.00965,0.70358,0.03262,0.01656,0.04063,0.36226,0.06045,0.03425,0.01530,0.02014,0.25179,0.06851,-0.00315,0.00053,0.45230,-0.00152,0.38778,0.47072,0.41242,0.55057,0.53817,0.60874,0.43435,0.04448,0.50592,0.48334
0.04253,0.58859,0.06500,0.45939,0.06344,0.03053,0.01206,0.39263,0.01841,0.02713,0.00260,0.42846,0.02607,0.02482,0.02734,0.01847,0.31723,0.03174,-0.00311,0.03815,0.60290,0.02058,0.70027,0.75151,0.56515,0.49317,0.39133,0.27590,0.67729,0.04537,0.70901,0.75293
0.02784,0.35836,0.06344,0.28988,0.02692,0.01642,0.02076,0.59459,0.04114,0.05498,0.03481,0.32799,0.04095,0.04059,0.02481,0.04407,0.27329,-0.00002,0.03137,0.03947,0.29381,0.04124,0.41309,0.38493,0.47984,0.35296,0.33557,0.64120,0.35095,0.04542,0.67007,0.48643
0.05455,0.61391,0.06441,0.33378,0.02475,0.02551,0.02934,0.67871,0.03931,0.02335,0.04294,0.58126,0.02401,0.04804,0.06258,-0.01822,0.40591,0.03620,0.00726,-0.00012,0.69680,0.03752,0.62505,0.42711,0.62609,0.51860,0.64155,0.55608,0.47665,0.01268,0.32033,0.51865
0.07381,0.74931,0.04320,0.24416,0.05024,0.03947,0.01027,0.65192,0.02777,0.02184,0.03337,0.56782,0.04475,0.01228,0.06020,0.01043,0.36304,0.01116,0.04649,0.02820,0.58340,0.02710,0.48351,0.60863,0.23797,0.73483,0.35660,0.27451,0.47742,0.02963,0.41476,0.33717
0.02611,0.49097,-0.00560,0.31833,0.00749,0.04267,0.01783,0.71355,0.02702,0.03387,0.00751,0.33576,0.03761,0.05869,0.05698,0.03730,0.53595,-0.00068,0.06450,0.06333,0.63657,0.03578,0.62259,0.44861,0.47948,0.44293,0.65830,0.69787,0.25843,0.03540,0.49183,0.27842
0.04397,0.64830,0.01271,0.69998,0.05652,0.04835,0.07168,0.66205,0.01775,0.06976,-0.00288,0.51209,0.04787,0.01435,0.05163,0.04300,0.27303,0.03492,0.07569,0.02054,0.73428,0.02227,0.50216,0.61685,0.71934,0.67271,0.62604,0.45774,0.31104,0.04540,0.59713,0.29192
0.01800,0.39899,-0.00159,0.29929,0.07823,0.01501,0.04664,0.67486,0.03771,0.01511,0.03900,0.32844,0.01673,0.02230,0.03154,0.00083,0.59474,0.01630,0.04277,-0.00409,0.44924,0.03270,0.41974,0.52825,0.35577,0.48126,0.29919,0.35344,0.63996,0.02139,0.48312,0.64352
0.05084,0.51817,0.05909,0.68054,0.04520,0.03036,0.02678,0.54376,0.08454,0.02745,0.04779,0.39367,0.04093,0.04211,0.00245,-0.00930,0.35572,0.02545,0.04847,0.01722,0.61760,0.02214,0.60838,0.21250,0.70671,0.57751,0.44801,0.52705,0.27315,0.00326,0.57357,0.59471
0.00971,0.48733,0.07075,0.49342,0.02508,0.00441,0.04791,0.77234,0.05129,0.04222,0.02771,0.34706,0.03316,0.02068,0.00120,0.02378,0.31875,0.05925,0.05549,0.02517,0.32100,0.01979,0.48951,0.52461,0.76832,0.56764,0.46876,0.53794,0.39694,0.01169,0.54050,0.27883
0.04198,0.63945,0.00233,0.48307,0.03215,0.04924,0.05459,0.65038,0.02935,0.05612,-0.00309,0.66000,0.04292,0.07801,0.03409,0.04393,0.38924,0.03595,0.00547,0.02731,0.67605,0.03233,0.34205,0.48623,0.56915,0.54377,0.50337,0.27443,0.43844,0.01803,0.74066,0.23047
0.00773,0.60103,-0.00668,0.52613,0.08657,0.03142,-0.00813,0.33363,-0.00915,0.03480,0.00654,0.47993,0.04659,0.03039,0.02411,0.01422,0.58741,0.03706,0.03676,0.03578,0.31085,0.02617,0.60718,0.70738,0.64734,0.28133,0.32263,0.69527,0.53465,0.03336,0.48334,0.38297
0.02642,0.57973,0.03026,0.50126,0.01030,0.05160,0.00257,0.39757,0.02441,0.00878,0.04076,0.34751,0.03926,0.05169,0.07282,0.03823,0.62281,0.00181,-0.00811,0.04205,0.55527,0.04084,0.50361,0.41900,0.39897,0.31283,0.53193,0.45158,0.59857,0.06318,0.40818,0.28945
0.06207,0.28617,0.04247,0.41563,0.03178,-0.00272,-0.00349,0.63094,0.06387,0.05171,0.01444,0.56995,0.01044,0.06283,0.00034,0.02348,0.31408,0.04679,0.03752,0.07125,0.73525,0.03168,0.53755,0.32361,0.62467,0.25768,0.64762,0.28824,0.32469,0.03057,0.60939,0.47693
0.02994,0.53157,-0.00210,0.40665,0.00848,0.02898,0.04537,0.57547,0.01187,0.03963,-0.00464,0.54539,0.04589,0.03005,0.03992,-0.01125,0.49458,0.02470,0.03560,0.08230,0.32480,0.00338,0.52112,0.39051,0.42048,0.38560,0.64974,0.59474,0.51768,0.05105,0.67569,0.59360
-0.02241,0.61493,0.05083,0.47408,0.02927,0.01469,0.05994,0.36817,0.00326,-0.00493,0.03522,0.54191,0.06848,0.02952,0.04247,0.01684,0.66721,0.02782,0.01323,-0.00690,0.50187,-0.02046,0.29251,0.55429,0.51239,0.58223,0.72900,0.58340,0.69772,0.01868,0.64199,0.44405
0.04874,0.50782,0.02375,0.65614,-0.00894,0.03667,0.02873,0.55024,0.01899,0.03377,0.02013,0.28168,0.00542,0.03657,0.01367,0.00480,0.61849,0.03277,0.05138,-0.00108,0.25206,0.06030,0.60936,0.42895,0.60398,0.41677,0.45801,0.59098,0.48381,0.00609,0.34806,0.54213
0.08548,0.66235,-0.00551,0.51227,-0.00082,0.00739,0.00939,0.42438,0.05464,0.03663,0.04571,0.50687,0.00018,0.04258,0.00130,0.04242,0.26669,0.02204,0.02610,0.04369,0.46529,0.04703,0.50784,0.34339,0.53632,0.41400,0.43361,0.26079,0.57432,0.04127,0.26716,0.47741
0.03373,0.56635,0.01180,0.54660,0.04530,-0.01169,0.05472,0.38658,0.07214,0.01413,0.04811,0.50311,0.03304,0.05578,0.00143,0.06445,0.62012,0.00134,0.05707,0.04611,0.74610,0.04617,0.76505,0.62549,0.68444,0.60162,0.26292,0.51480,0.53276,0.04072,0.47076,0.31012
-0.00593,0.49383,0.06626,0.57028,0.07105,0.05280,0.07672,0.30543,0.02933,0.03165,0.01399,0.36430,0.06276,0.01980,0.02333,0.03831,0.31184,0.04634,0.03659,0.04534,0.44298,-0.00329,0.25224,0.30239,0.58767,0.54826,0.45499,0.47032,0.66204,0.02795,0.35589,0.50525
0.03416,0.39552,0.03324,0.44860,0.02132,0.01504,-0.00126,0.37026,0.04119,0.05212,0.03059,0.26297,0.03554,0.02736,0.04457,0.04048,0.72677,0.02753,0.04196,0.02398,0.43218,-0.03382,0.47421,0.62058,0.25603,0.30813,0.51602,0.50861,0.67916,0.00121,0.27026,0.69542
0.03675,0.71397,0.03639,0.76372,0.04462,0.02296,0.05361,0.62473,0.03361,-0.02150,0.01722,0.41834,-0.00715,0.00168,0.06682,0.01992,0.41844,-0.00280,0.01027,0.01131,0.56540,0.04979,0.50486,0.66982,0.66263,0.32499,0.73280,0.50333,0.31518,0.03443,0.32906,0.70418
0.02624,0.42886,0.03167,0.54457,0.00645,0.04415,0.03966,0.47254,0.06469,0.01019,0.06158,0.47408,0.08897,0.01019,0.00598,0.05632,0.48817,0.04261,0.06918,0.02935,0.32558,-0.00148,0.34203,0.53302,0.49878,0.31724,0.33730,0.50631,0.39928,0.04454,0.29948,0.52439
0.04520,0.70408,0.01869,0.29402,0.00053,0.02195,0.02429,0.31406,-0.01077,0.03570,0.05226,0.65612,0.05313,0.01565,0.01184,-0.00749,0.52736,0.01916,0.03566,0.00533,0.53982,0.05313,0.44910,0.71801,0.66144,0.37227,0.41531,0.67208,0.70599,0.01960,0.34053,0.74824
0.05153,0.43267,0.01681,0.37303,0.03301,-0.02697,0.04997,0.68832,0.00382,0.03559,0.04469,0.72502,0.03315,0.06254,0.03059,0.02131,0.30600,0.06810,0.03256,-0.00621,0.52904,0.01649,0.55385,0.27244,0.71094,0.51943,0.28367,0.33564,0.38801,0.00594,0.41930,0.74358
0.01226,0.30868,0.06226,0.40824,0.01316,-0.00966,0.05678,0.25602,0.04265,0.00977,0.03208,0.46921,0.03779,0.04378,0.06026,0.04330,0.34827,0.03598,0.02608,0.02696,0.57519,0.05078,0.46874,0.37652,0.69175,0.59902,0.39785,0.35024,0.35212,0.06158,0.66456,0.29811
0.03249,0.50164,0.02778,0.60631,0.03844,0.04353,0.00715,0.33568,0.04464,-0.01446,0.04791,0.73757,0.04818,0.00108,0.01914,0.00040,0.36480,0.02848,0.06737,0.02772,0.67470,0.05694,0.65119,0.54716,0.48370,0.31677,0.48214,0.40058,0.32647,0.07914,0.39646,0.63898
0.03192,0.30135,0.02479,0.62538,0.00941,0.04064,0.03547,0.37795,0.04050,0.02712,0.03827,0.53942,0.05863,0.02248,0.00617,-0.00164,0.69312,0.00074,0.03119,0.02126,0.45514,0.03754,0.67093,0.32994,0.67815,0.41660,0.66657,0.34599,0.43839,0.06146,0.27419,0.29244
0.05061,0.72955,0.04971,0.31437,0.04156,0.01773,0.03009,0.72775,0.04112,0.00744,0.00596,0.51400,0.01706,0.02150,0.00461,0.02834,0.65849,0.02232,0.06013,0.02544,0.59005,0.01616,0.41251,0.31231,0.33987,0.52049,0.64787,0.53547,0.60066,-0.00566,0.28567,0.61429
0.03795,0.26057,0.05690,0.75574,0.04325,0.02276,0.04781,0.49404,0.02446,0.03903,-0.00645,0.71923,0.02273,0.01119,0.02405,0.05488,0.52916,0.03776,0.02702,0.03102,0.75154,0.05849,0.29617,0.63057,0.53461,0.57047,0.26947,0.39950,0.46294,0.02652,0.68527,0.71371
0.00502,0.69873,0.05067,0.23445,0.04668,0.06301,0.02338,0.66894,0.03778,0.01047,0.05106,0.37465,0.02655,0.01501,0.04045,0.01225,0.65118,0.03260,0.04655,0.03579,0.63492,0.01759,0.60738,0.74753,0.68400,0.32186,0.43052,0.35079,0.49551,0.09320,0.64205,0.71885
0.02497,0.64036,0.06168,0.30434,-0.00778,0.02069,0.03499,0.27586,0.04797,0.06661,0.04634,0.34295,0.04654,0.05695,0.07146,0.02569,0.49317,0.04286,0.02659,0.06479,0.44229,-0.00209,0.74783,0.58842,0.34119,0.36557,0.26647,0.68054,0.65256,0.02841,0.36501,0.42408
0.01880,0.75572,0.05125,0.42230,0.00321,0.02291,0.02482,0.49861,0.02394,0.01343,0.05661,0.45460,0.00800,0.02236,0.05071,0.00373,0.60126,0.04551,0.00705,0.03902,0.60349,-0.01126,0.44751,0.67100,0.61008,0.62533,0.71017,0.49921,0.39172,0.03541,0.37974,0.51015
0.02326,0.37737,0.05574,0.27833,0.02881,0.01852,-0.00987,0.49965,0.03277,0.04787,0.04640,0.68843,0.02641,0.01432,0.05346,0.04582,0.34312,0.01073,0.01919,0.03036,0.35460,0.04510,0.36146,0.25494,0.29652,0.56075,0.57073,0.41457,0.58491,0.05414,0.53800,0.67566
0.06971,0.27306,0.00999,0.70572,0.05104,0.01497,0.02703,0.69745,0.02790,0.04892,0.01592,0.76075,0.05665,0.03236,0.03794,-0.00090,0.66991,0.02628,0.02031,0.01980,0.29483,-0.02888,0.55672,0.33100,0.44019,0.74258,0.52226,0.46968,0.44571,0.03113,0.66542,0.73306
0.02956,0.57630,0.01166,0.49967,0.05725,0.04539,0.03999,0.26885,0.01326,0.03468,0.03037,0.62905,0.05013,-0.00596,0.03731,0.03532,0.27395,0.06774,0.02140,0.02224,0.46400,0.05140,0.62267,0.35150,0.69507,0.43223,0.62040,0.44381,0.47799,0.02726,0.36607,0.37881
0.03161,0.31539,0.05261,0.42454,0.00944,0.01180,0.04799,0.26278,0.07395,0.04985,0.04979,0.54232,0.05455,0.03996,0.00387,0.02819,0.34641,0.02194,0.02464,0.02204,0.42999,0.01818,0.46057,0.49744,0.32705,0.70553,0.37465,0.53133,0.70880,0.05149,0.61687,0.46089
0.06366,0.33347,0.02178,0.68402,0.03443,0.04602,0.04767,0.39448,0.02106,0.02169,0.02110,0.54697,0.04755,0.00815,0.04809,0.03407,0.68504,0.03863,0.03526,0.06039,0.72273,0.01124,0.72646,0.51999,0.44066,0.32107,0.35567,0.55694,0.51762,0.04845,0.26152,0.60953
0.03733,0.45773,0.03709,0.48335,-0.01196,0.01079,0.03104,0.63390,-0.00458,0.01776,0.04092,0.37322,0.06151,-0.00573,0.03832,0.03078,0.42595,0.00090,0.05754,0.02947,0.72045,0.02892,0.65135,0.27569,0.72688,0.37229,0.36969,0.63208,0.54150,0.02337,0.48509,0.39621
0.01890,0.76337,0.02839,0.67496,0.04883,0.01895,0.04927,0.44249,0.01315,0.01662,0.05180,0.45506,0.06476,0.05796,0.01382,0.02749,0.47957,0.02456,0.05660,0.02056,0.31245,0.00769,0.53790,0.39792,0.30858,0.65265,0.59772,0.38776,0.50205,0.03718,0.40938,0.33042
0.03605,0.71077,0.03504,0.33263,0.04831,0.01435,0.03203,0.67684,0.02115,0.05034,0.01272,0.30558,0.01198,0.04844,0.05694,0.01343,0.34048,0.05356,0.02691,0.05497,0.27483,0.02570,0.64719,0.42176,0.31531,0.30323,0.68981,0.34368,0.68775,0.03564,0.60532,0.63829
-0.00893,0.20598,0.00703,0.69272,0.04106,0.02243,0.01179,0.28207,0.02664,0.02409,0.00755,0.68073,0.03270,0.01205,0.02778,0.02644,0.43039,0.04620,0.05995,-0.00957,0.42751,0.03278,0.33255,0.72034,0.26121,0.25876,0.40914,0.26377,0.23643,0.03329,0.69563,0.41894
0.01347,0.41170,0.02549,0.71168,0.02760,0.01394,0.00176,0.36650,0.00868,-0.00769,0.01442,0.27028,0.04819,0.03893,0.06506,0.02310,0.56005,0.01266,0.03467,0.06839,0.67577,0.02768,0.44501,0.63268,0.61284,0.47337,0.44902,0.72976,0.44086,0.02817,0.33360,0.25221
0.00287,0.61969,0.00524,0.28347,0.02947,0.02365,-0.00728,0.67410,0.02850,0.06645,0.01039,0.58489,0.02051,0.01592,0.00432,-0.01157,0.63722,0.04579,0.00632,0.01638,0.36745,0.02523,0.58339,0.56588,0.76557,0.74669,0.42832,0.25786,0.39545,0.00043,0.25420,0.56706
0.03841,0.37970,0.07325,0.43123,0.04161,0.02247,0.02800,0.56381,0.06825,0.03299,0.03049,0.56538,0.04175,0.03246,0.00217,0.03084,0.73371,0.04006,0.06394,0.02808,0.57793,0.04378,0.64239,0.55394,0.32402,0.68560,0.32697,0.50673,0.70627,0.01799,0.34954,0.56680
0.03937,0.63370,0.05254,0.24993,-0.00687,0.02390,0.01782,0.37038,-0.00306,0.02757,-0.01596,0.65440,0.00050,0.01893,0.01845,0.03648,0.45435,0.01763,0.00828,-0.01315,0.36559,0.01600,0.55872,0.68165,0.50482,0.61835,0.38222,0.37421,0.56444,0.03013,0.33983,0.45679
0.04046,0.57491,0.03979,0.34642,0.02636,0.04177,0.01623,0.63996,0.05377,0.04084,0.01963,0.51633,-0.00383,0.07071,0.07040,-0.00355,0.67734,0.02486,0.01408,0.03754,0.38339,0.02496,0.73104,0.45718,0.49024,0.40155,0.56080,0.55264,0.52779,0.02006,0.33208,0.55722
0.03699,0.57770,0.00860,0.48072,0.03214,0.03553,0.06988,0.71995,0.05983,0.06970,0.03024,0.62160,0.05042,0.01530,0.02403,0.04640,0.46216,0.04505,0.05082,0.03010,0.66757,0.03839,0.34556,0.73714,0.49313,0.40261,0.30553,0.71088,0.29879,-0.00521,0.64458,0.64707
0.03807,0.33327,0.02893,0.53288,0.00307,0.00012,0.00489,0.65923,0.04537,0.07282,0.03408,0.72510,0.04640,0.02945,0.00115,0.01797,0.56301,-0.00369,0.00610,0.05802,0.74594,-0.00008,0.28615,0.51549,0.71491,0.38796,0.69819,0.30676,0.46333,-0.00455,0.65695,0.62108
0.05557,0.72033,0.03840,0.37097,0.02728,0.05208,0.05049,0.49981,0.08900,0.05263,0.04421,0.59511,0.05488,0.04801,0.03380,0.01653,0.49357,0.02951,0.00228,0.08766,0.47403,0.02305,0.41822,0.47542,0.32333,0.76947,0.68437,0.38961,0.61138,0.01179,0.72386,0.70124
0.00046,0.28529,0.02209,0.45471,0.07984,0.04021,0.04406,0.62116,0.04311,0.02360,0.01732,0.55730,-0.00018,-0.02266,0.02341,0.01644,0.37443,0.02154,0.05370,0.02636,0.60261,0.00991,0.34058,0.35034,0.44536,0.58530,0.22567,0.51816,0.47635,0.02686,0.23706,0.33425
0.01052,0.72400,0.01527,0.32395,0.02377,0.05080,0.03812,0.45406,0.01671,0.01613,0.03269,0.61236,-0.01922,0.03852,0.01194,0.02694,0.31607,0.00237,0.04976,0.01493,0.69024,0.03374,0.41472,0.29147,0.32114,0.31725,0.53326,0.48696,0.60311,0.02354,0.54798,0.48914
0.01913,0.59694,0.06685,0.70445,0.07523,-0.00342,0.02943,0.69354,0.02875,0.00164,0.06203,0.25014,0.02758,0.06345,0.00696,0.06054,0.44111,0.00199,0.00908,0.01402,0.42955,0.04979,0.46608,0.47217,0.28536,0.70240,0.28334,0.24232,0.55128,0.05985,0.55312,0.61988
0.04088,0.56260,0.01231,0.44839,-0.00029,0.02741,0.01076,0.43585,0.01207,-0.00176,0.02265,0.52637,0.00796,0.07733,0.04414,0.05072,0.72810,0.04095,0.03299,0.03438,0.59390,0.01509,0.38487,0.60573,0.41568,0.57090,0.60669,0.51634,0.40484,0.04580,0.46849,0.36925
0.01182,0.68726,-0.02013,0.27936,0.02312,0.02326,0.00642,0.26164,0.01605,-0.00793,0.04735,0.43510,0.03793,0.02665,0.01778,0.04604,0.36948,-0.01399,0.05592,0.05677,0.73721,0.03804,0.31902,0.56818,0.49444,0.72300,0.73009,0.34075,0.43412,0.00406,0.39890,0.57551
0.02655,0.59265,0.02234,0.63677,-0.00263,0.03652,0.05099,0.53291,0.00297,0.00937,0.03327,0.52394,0.03178,0.02154,0.03943,0.04659,0.69591,0.06998,0.06066,0.01999,0.55152,0.04029,0.37914,0.60565,0.68015,0.36410,0.32763,0.73886,0.27195,0.02931,0.50442,0.41177
0.01547,0.67981,0.00689,0.39467,0.03437,-0.00675,0.04527,0.45718,0.02604,0.03445,0.05652,0.64520,0.04718,0.04950,0.00346,0.01777,0.48264,0.04603,0.02276,-0.01466,0.47838,0.00181,0.67690,0.27673,0.46619,0.34068,0.49228,0.31899,0.63954,-0.00339,0.28954,0.57819
0.00781,0.50881,0.01094,0.72226,0.02958,0.04533,-0.00753,0.60153,0.04655,-0.00277,0.04206,0.30602,0.02930,0.06110,0.00740,0.03062,0.62077,0.01014,0.05101,-0.00529,0.54362,0.01236,0.55322,0.69931,0.55286,0.64881,0.62467,0.32132,0.32557,-0.00473,0.29522,0.69124
0.01387,0.68123,0.01381,0.40912,0.01155,0.01644,0.07796,0.31558,0.00014,0.02907,0.03156,0.75017,0.00205,0.04345,0.04955,0.00252,0.71960,0.05012,0.06183,0.05457,0.39021,0.04005,0.75365,0.56826,0.42361,0.56863,0.52911,0.25065,0.55939,0.03078,0.53748,0.57661
0.05009,0.70981,0.01166,0.67589,0.03194,0.01230,0.03332,0.71072,0.02879,0.00462,0.07342,0.38971,0.02285,0.03611,0.04335,0.03640,0.25820,0.03591,0.01697,0.03344,0.41266,0.03428,0.35788,0.35500,0.61573,0.38609,0.32962,0.50368,0.70978,0.03822,0.68550,0.57879
0.04837,0.26749,0.03947,0.69347,0.01991,0.04545,0.05122,0.52559,-0.01558,0.01177,0.01984,0.63236,0.04429,0.00921,0.05168,0.00600,0.66438,0.03292,0.00911,0.02557,0.42195,0.04116,0.43274,0.48899,0.72078,0.55917,0.36136,0.42229,0.66462,0.02867,0.47966,0.40929
0.03669,0.36102,0.04070,0.61703,0.01768,0.05322,0.01854,0.30353,0.02583,0.01155,-0.00973,0.27510,0.00329,0.02124,0.03062,0.01344,0.50475,-0.01312,0.05591,0.01718,0.37759,0.02935,0.38073,0.61459,0.40002,0.61882,0.31281,0.72508,0.36754,0.01842,0.45308,0.60291
0.02621,0.72335,0.05756,0.46328,0.02688,0.03726,0.01659,0.57605,0.05348,0.02264,0.01679,0.47295,0.00220,0.04399,0.04567,0.06207,0.28095,-0.00349,0.06181,0.01115,0.46195,0.01700,0.71498,0.27012,0.63028,0.35956,0.55338,0.51944,0.58343,0.02673,0.50269,0.50290
-0.00003,0.73442,0.02941,0.65470,0.01926,0.05119,0.06334,0.55386,0.04261,0.05725,0.05272,0.53749,0.02964,0.04879,0.04599,0.06005,0.48935,0.05691,0.05457,0.06156,0.51131,0.02777,0.74264,0.47963,0.30479,0.52876,0.43245,0.37845,0.58293,0.00162,0.54784,0.60867
-0.00585,0.55837,0.04909,0.70910,0.00748,0.05625,0.02607,0.63592,0.04144,0.01858,0.01968,0.43895,0.02419,0.05317,0.01874,0.00124,0.60431,0.03197,0.04381,0.07604,0.39782,0.04327,0.30946,0.58582,0.43063,0.75140,0.29302,0.70281,0.52184,0.03666,0.66847,0.28340
0.04752,0.70571,0.01888,0.40044,0.02941,0.03493,0.05355,0.65909,0.04653,0.01472,0.01312,0.51204,0.04756,0.02958,0.02279,0.03092,0.57706,0.01783,0.04591,0.00262,0.55419,0.05620,0.53947,0.31159,0.37062,0.63933,0.26573,0.54565,0.54282,0.02478,0.34856,0.50450
0.02718,0.63066,0.00432,0.70274,0.02697,-0.01196,0.01081,0.73062,0.06810,0.04087,0.00236,0.65772,0.02193,0.00679,0.02720,0.02613,0.66532,0.05061,0.04253,0.03593,0.28824,0.06151,0.73617,0.32100,0.69582,0.58509,0.52557,0.64396,0.32432,0.01543,0.31013,0.39629
0.11254,0.62395,0.03609,0.74683,0.02513,0.02690,0.04125,0.29627,0.04749,0.04845,0.00506,0.62916,0.03597,0.00403,0.03075,0.04329,0.27115,0.05363,0.01020,0.04473,0.71402,0.06746,0.28774,0.32960,0.32727,0.41396,0.68206,0.43610,0.54827,0.04620,0.46459,0.37442
0.02465,0.68506,0.01554,0.66957,0.05452,0.03369,0.07720,0.70585,0.00086,0.01343,0.04242,0.48520,0.02382,0.04102,0.02576,0.02726,0.40164,0.00782,0.02720,0.00881,0.54187,0.04786,0.27161,0.37348,0.48957,0.35068,0.60710,0.25764,0.56106,0.00598,0.36065,0.28690
0.00138,0.56806,0.07900,0.29213,0.05732,0.04231,0.01894,0.49407,-0.00160,-0.00758,0.05369,0.34589,0.08218,0.04127,0.04248,0.02094,0.29767,0.01963,0.07545,0.00002,0.41913,0.02663,0.29904,0.44986,0.26222,0.63339,0.58992,0.45774,0.70542,0.05080,0.32145,0.74978
0.03243,0.58092,-0.00457,0.31807,0.03025,0.01322,0.03710,0.37892,0.01975,0.03270,0.06154,0.32310,0.03600,0.06514,0.03545,0.04216,0.40835,0.00199,0.01309,0.05175,0.38288,0.00016,0.40800,0.59346,0.57255,0.56988,0.51624,0.47711,0.33751,0.04448,0.30103,0.46932
0.03401,0.61908,0.04599,0.71562,0.01516,0.00983,0.02692,0.35580,0.03669,0.03019,0.08139,0.43260,0.02753,0.01609,0.02960,0.01840,0.65323,0.01806,0.03254,0.07968,0.45428,0.01283,0.49966,0.59086,0.74851,0.51349,0.35592,0.44035,0.50309,0.03503,0.26740,0.49968
-0.00417,0.56324,0.03953,0.25345,0.03703,0.00699,0.03724,0.33385,0.03311,0.03998,0.01280,0.34853,0.04886,0.03132,0.00246,0.03922,0.54866,0.05721,0.07367,0.01970,0.35222,-0.00647,0.31809,0.59454,0.73243,0.58656,0.38524,0.37061,0.33419,0.07619,0.54675,0.44592
0.00262,0.74569,-0.00125,0.41739,-0.00321,0.03544,-0.00048,0.38419,0.02068,0.04064,-0.00202,0.29166,0.02193,-0.00223,0.03314,0.01358,0.38297,0.05751,0.03251,0.02428,0.52167,0.03550,0.64547,0.75965,0.66853,0.28752,0.36652,0.25263,0.37637,0.01268,0.65235,0.70457
0.02956,0.52490,0.06901,0.41574,0.08197,0.05193,0.03332,0.73855,0.03601,0.08548,0.02326,0.29157,0.03093,0.03256,0.07590,0.06450,0.31709,0.00802,0.06392,0.03570,0.50088,0.04648,0.52733,0.29423,0.34240,0.23562,0.69958,0.28944,0.31263,0.05881,0.41458,0.61604
-0.00309,0.45512,0.01362,0.46531,0.03563,0.05256,0.01492,0.30572,0.06348,0.04181,0.03320,0.70358,0.02082,0.06635,-0.00095,0.02268,0.43154,0.03380,0.00507,0.06008,0.41569,0.03087,0.51011,0.43975,0.51690,0.49743,0.68057,0.51557,0.69495,-0.01661,0.33399,0.41850
0.06994,0.33744,-0.01578,0.67459,0.01503,0.01319,0.02837,0.41457,0.03875,0.01871,0.03592,0.36466,0.07709,0.03146,0.03259,0.02222,0.56602,0.05360,-0.00855,-0.00066,0.52178,-0.01355,0.30740,0.49414,0.32453,0.42550,0.65400,0.53836,0.32515,0.02544,0.50184,0.41076
0.02897,0.38358,0.01630,0.53687,-0.00589,0.06112,0.04027,0.68052,0.05617,0.09242,0.05749,0.57071,0.08871,0.02589,0.05156,0.02230,0.72209,0.00921,-0.01898,0.00589,0.36845,0.00591,0.40598,0.71194,0.31570,0.26407,0.57188,0.67469,0.40175,0.00908,0.26708,0.55353
0.01889,0.75876,0.03067,0.74334,0.02042,0.01433,0.00454,0.58214,0.03538,0.02930,0.06945,0.52944,0.07388,0.01493,0.02704,-0.00158,0.53476,-0.00469,0.00805,0.00250,0.30710,-0.00024,0.30046,0.48523,0.36751,0.67759,0.28247,0.31632,0.35744,0.02614,0.53490,0.27111
0.00342,0.55955,0.04395,0.38703,-0.00561,0.02500,0.05755,0.34303,0.04737,0.01683,0.02315,0.60635,0.02082,0.02529,0.04620,0.03999,0.43510,0.01419,0.02202,0.01233,0.31815,0.04226,0.38274,0.61587,0.40149,0.30416,0.57967,0.43826,0.31028,0.03792,0.47146,0.53281
0.04187,0.33826,0.03070,0.46607,0.03644,-0.01732,0.03137,0.57032,0.03123,0.02152,0.01561,0.36182,0.02000,0.01190,0.03948,0.01731,0.45600,0.02673,0.04092,0.05666,0.49259,0.03360,0.32598,0.29074,0.33370,0.59267,0.36639,0.43541,0.72322,0.06242,0.57235,0.38429
0.03044,0.26387,0.05024,0.47757,0.03474,0.02324,0.01984,0.43401,0.05080,0.04904,-0.01237,0.68096,0.05596,0.02419,0.03949,0.03360,0.68917,0.04360,0.04637,0.04070,0.51718,0.04098,0.28505,0.31253,0.44542,0.24866,0.54368,0.42058,0.32509,0.05306,0.55270,0.66411
0.02535,0.48046,0.05654,0.33436,0.02915,0.03805,0.00596,0.57230,0.04063,0.01609,0.04004,0.43724,0.01520,0.03311,-0.03240,0.04329,0.29438,0.02420,-0.01005,0.00758,0.34941,0.01709,0.41266,0.62528,0.31686,0.47282,0.71187,0.40608,0.58953,0.02931,0.46533,0.48420
0.03192,0.61033,0.04878,0.46845,0.01309,0.04481,0.02254,0.22446,0.02860,0.02905,0.00267,0.50959,0.05350,0.04015,0.04292,0.04307,0.48421,0.01626,-0.01666,0.03532,0.69387,0.02647,0.42042,0.67903,0.34690,0.48053,0.55418,0.56305,0.65889,0.04590,0.57162,0.44607
0.03343,0.50770,0.00663,0.27695,0.00813,0.00063,0.02027,0.63724,0.04398,0.04503,0.02047,0.43047,0.05011,0.03488,0.05547,0.01075,0.47064,0.01935,0.06035,0.07049,0.69115,0.00637,0.37258,0.74225,0.53098,0.49351,0.47186,0.64301,0.35787,0.02362,0.59190,0.41700
0.03082,0.69689,0.06105,0.24309,0.05863,0.02840,0.02409,0.55250,0.05935,0.03575,-0.00754,0.21599,0.00845,0.04662,0.00853,0.03040,0.29006,0.02101,0.00954,-0.00866,0.39245,0.02991,0.24682,0.44362,0.60008,0.55589,0.28758,0.40383,0.39662,0.03326,0.27729,0.39756
0.05300,0.49984,0.06133,0.29342,0.04899,-0.00118,0.02324,0.32506,0.02731,0.03420,0.05065,0.45832,-0.01619,0.01035,0.02353,0.01074,0.36691,0.05278,0.01329,0.06946,0.32935,0.05216,0.45040,0.43902,0.43338,0.59311,0.61897,0.44301,0.61577,0.06026,0.44671,0.52784
0.00055,0.56377,0.03495,0.22144,0.03232,0.04962,0.02089,0.50889,0.03418,0.03372,0.05344,0.69399,0.02320,0.03119,0.02639,0.04513,0.49680,0.03270,0.01838,-0.00438,0.70994,-0.00177,0.52747,0.28434,0.67842,0.31405,0.59029,0.31230,0.66015,0.02563,0.30141,0.36125
0.01030,0.67357,0.02687,0.69824,0.01446,0.04508,0.04911,0.67507,0.01563,0.01503,0.00478,0.46507,0.02087,0.06291,0.03438,0.02795,0.24370,0.00720,0.03757,0.04594,0.56813,0.05991,0.74434,0.57447,0.63120,0.28459,0.25267,0.35024,0.29261,0.04952,0.32209,0.61284
0.04638,0.71801,0.03263,0.45165,0.02583,0.01119,0.00969,0.68623,0.01115,0.05804,0.04708,0.28723,0.02350,0.02410,0.04114,0.01300,0.58497,-0.00184,0.02593,0.03871,0.51627,0.05010,0.30600,0.51737,0.41495,0.71658,0.50003,0.65647,0.59178,-0.01353,0.46177,0.62837
0.02739,0.55391,0.02801,0.69945,0.00829,0.01500,0.04056,0.71315,0.05687,0.02584,0.04096,0.70660,0.02309,0.04116,0.05248,0.02714,0.28828,0.01664,-0.03970,0.01242,0.59627,0.05920,0.56303,0.58822,0.39281,0.55220,0.48771,0.46507,0.50194,0.02061,0.33866,0.53151
0.05914,0.39818,0.02377,0.46444,-0.00318,0.04324,0.04529,0.42435,0.03966,0.05614,-0.00118,0.57126,0.03082,0.04235,0.04442,0.01669,0.39891,0.02541,0.01311,0.00936,0.50544,0.01164,0.70223,0.67267,0.37745,0.50354,0.57704,0.58406,0.69194,0.03110,0.34735,0.48518
0.02936,0.59682,0.01560,0.44095,0.05183,0.05631,0.02358,0.19932,-0.00770,0.01371,0.00575,0.51513,0.00757,0.05429,0.01159,0.02780,0.71268,0.03922,0.05802,0.03221,0.32341,0.02304,0.49677,0.29798,0.75483,0.39497,0.28840,0.30540,0.73290,0.04028,0.46118,0.35043
0.01949,0.71183,0.04605,0.46961,0.01689,0.02288,0.04402,0.34766,0.05591,0.04935,0.01197,0.76024,0.01561,0.03047,0.03200,0.00483,0.29125,0.03425,0.04268,0.00715,0.31715,0.03883,0.62529,0.56094,0.39691,0.57427,0.74129,0.67524,0.60703,-0.00763,0.74159,0.44936
0.03193,0.44037,0.04669,0.38357,0.04667,0.03454,0.00365,0.52910,0.01495,0.05329,0.03595,0.41155,0.04359,0.07258,0.02076,0.03259,0.47900,0.03200,0.04687,0.07208,0.48449,0.02994,0.55584,0.60964,0.62491,0.65560,0.37801,0.51971,0.53563,0.04682,0.63599,0.26281
0.05699,0.38704,0.02863,0.47639,0.05271,0.02111,0.02489,0.68677,0.06332,0.06607,0.06022,0.72080,0.01069,0.02582,0.03470,0.01572,0.31568,0.04291,0.02591,0.04794,0.42991,0.02166,0.37034,0.33894,0.32241,0.63133,0.35349,0.26957,0.30664,0.00140,0.67408,0.48780
-0.01342,0.42800,0.01571,0.26712,0.02808,0.04934,0.01236,0.42774,0.07310,0.03452,0.01851,0.28022,0.05123,0.01720,0.04181,0.03754,0.64089,0.05003,0.03418,0.04710,0.75426,0.03111,0.51884,0.62397,0.62465,0.28536,0.64181,0.31204,0.72663,-0.00109,0.58496,0.30138
0.04208,0.40271,0.02953,0.62908,0.04132,0.02967,0.02410,0.65448,0.03648,0.00186,0.08580,0.34172,0.05000,0.00995,0.03711,0.06021,0.57476,0.02052,0.02397,0.05193,0.33679,0.04680,0.34408,0.47689,0.47757,0.60466,0.41260,0.38187,0.66658,0.03022,0.38868,0.69472
0.04581,0.33530,0.03444,0.57228,-0.00078,0.03501,0.02501,0.70372,0.05966,-0.01948,0.03599,0.60627,0.03984,0.02967,0.04840,0.04475,0.54929,0.02959,0.03054,0.00612,0.29663,0.01313,0.55645,0.58149,0.60525,0.38661,0.46836,0.25681,0.61204,0.04760,0.46549,0.59518
0.02046,0.55277,0.01087,0.37477,0.03459,0.06354,-0.00447,0.60642,0.05254,0.03259,0.02997,0.28543,0.01217,0.01692,0.01647,0.01315,0.45157,0.02965,-0.00659,0.02030,0.39281,0.02588,0.63756,0.49124,0.60260,0.65978,0.34156,0.28113,0.70432,0.02840,0.25616,0.37633
0.02347,0.26226,0.01749,0.67203,0.06289,0.01656,-0.00048,0.67388,0.04437,0.00544,0.02068,0.30357,0.03904,0.01106,0.02298,0.05214,0.30649,0.05079,0.01050,0.02886,0.46909,0.02854,0.49100,0.46843,0.53360,0.45714,0.68372,0.34943,0.25371,0.02827,0.53588,0.37498
0.05032,0.60317,0.04401,0.42392,0.01125,0.04549,0.03376,0.41191,0.05530,0.04799,0.04921,0.46379,0.02781,0.07153,0.04915,0.06653,0.26358,0.04850,-0.00400,0.01897,0.32524,0.01094,0.24184,0.54575,0.55865,0.67979,0.62155,0.72019,0.62673,-0.02846,0.56507,0.41567
0.06184,0.29214,0.02693,0.26679,0.03664,0.03782,0.05516,0.47635,0.05268,0.01519,0.02876,0.57521,0.03453,0.01105,0.02331,0.06068,0.29975,0.05236,0.01158,0.07727,0.72371,0.05732,0.55535,0.76236,0.43809,0.59368,0.72328,0.35196,0.74932,0.04135,0.72807,0.67285
0.03754,0.53900,0.04213,0.54695,0.02498,0.02892,0.01140,0.24325,0.06020,0.00844,0.03167,0.44193,0.04124,0.04825,0.03660,-0.00136,0.31445,0.02660,0.03020,0.04587,0.39978,0.02521,0.32122,0.52103,0.42129,0.73234,0.66280,0.56986,0.64560,0.03943,0.60706,0.69837
0.04568,0.64842,-0.00943,0.39201,0.07136,0.05780,0.04287,0.48381,0.05432,0.03007,0.03162,0.60118,0.01284,0.01599,0.03550,-0.00054,0.27031,0.05521,0.01834,0.00466,0.55439,0.05928,0.53786,0.67486,0.51214,0.71351,0.29343,0.68058,0.57373,0.04868,0.45729,0.44401
0.04267,0.73701,0.04923,0.48030,0.00488,0.02571,0.03030,0.56699,0.02985,-0.03015,0.06132,0.33850,0.00176,0.04377,0.00551,0.05761,0.51191,0.00919,0.06387,0.01602,0.57894,0.01320,0.65431,0.54804,0.44446,0.32958,0.55501,0.73723,0.45413,0.05951,0.28846,0.51999
0.05413,0.39645,0.06533,0.77360,0.01853,0.02303,0.06482,0.65978,0.02193,0.05218,-0.03318,0.23905,0.04471,0.04605,0.05183,0.01205,0.32563,0.03842,0.03820,0.04374,0.65195,0.06815,0.65009,0.37352,0.56625,0.46339,0.33831,0.32979,0.64162,-0.00024,0.37401,0.73815
0.00544,0.40650,-0.01722,0.67048,0.02042,0.05221,0.04556,0.27372,0.00279,0.06427,0.06404,0.56046,0.06406,-0.02283,0.07527,0.02266,0.33553,0.06041,0.01947,0.03353,0.67594,0.03215,0.64940,0.03759,0.64327,0.51347,0.53121,0.59644,0.53937,0.05513,0.44155,0.36451
0.00876,0.65560,0.06215,0.43773,0.03239,0.01932,0.03097,0.50863,0.08313,0.01440,0.00640,0.46838,0.02019,0.03030,0.03658,0.03087,0.36669,0.00807,0.03722,0.08339,0.54769,0.02515,0.75405,0.03438,0.57689,0.58361,0.64787,0.29096,0.66235,0.00467,0.56443,0.53505
0.00943,0.41930,0.02063,0.68604,0.00148,0.03517,0.03694,0.68263,0.03736,0.01051,0.00673,0.60857,0.02114,0.02419,0.02238,0.04335,0.29071,0.04445,0.02560,0.03422,0.59095,0.04278,0.70402,0.06843,0.44648,0.26928,0.35284,0.73263,0.62733,0.04007,0.56321,0.57269
0.03458,0.50433,0.04353,0.48138,-0.01038,0.04765,0.03039,0.48336,0.00950,0.04522,0.05055,0.70898,0.02609,0.03877,0.06575,0.02550,0.34803,0.02714,0.01978,0.03796,0.48777,0.06342,0.45825,0.04361,0.26405,0.42983,0.45550,0.68676,0.27525,0.01009,0.39150,0.29864
0.01109,0.64094,-0.01319,0.55309,0.03583,0.01252,0.01137,0.38967,0.02246,0.05941,0.02720,0.35569,0.07790,-0.00173,0.05546,0.03960,0.63573,0.02707,0.04855,0.01701,0.62833,0.01326,0.42371,0.03952,0.51921,0.65331,0.75473,0.69817,0.50104,0.02108,0.47960,0.50016
0.05169,0.58979,0.02242,0.46661,0.00904,0.05553,0.05010,0.23722,0.03982,0.05945,0.06109,0.28692,0.02732,-0.01415,0.01379,0.01978,0.66240,0.07039,-0.00550,0.03782,0.31465,0.04770,0.43190,0.05704,0.34928,0.47219,0.61202,0.41278,0.41016,0.04248,0.43344,0.69135
0.01388,0.45600,0.01660,0.71435,0.03607,0.00389,0.02404,0.35222,0.05103,0.03133,0.00336,0.39904,0.02808,0.04803,0.07011,0.02404,0.43731,0.04026,0.05077,-0.00861,0.52489,0.07816,0.32159,0.10624,0.42870,0.70073,0.27264,0.34714,0.52747,0.01841,0.52466,0.69330
0.03101,0.66786,0.01593,0.39926,0.04836,0.04105,0.00314,0.46956,0.07862,0.03489,0.04287,0.41151,0.03221,0.02579,0.04960,0.03294,0.54531,0.07315,0.03138,0.02591,0.24713,0.03948,0.66575,-0.00078,0.54576,0.44219,0.46472,0.60665,0.41968,0.03721,0.63180,0.34514
0.06007,0.39957,0.01376,0.56682,0.05365,0.03071,0.01468,0.61428,0.04902,0.05231,0.02556,0.58031,0.01775,-0.00108,0.04996,0.01230,0.63768,0.04255,0.05176,0.00418,0.29522,0.02476,0.64127,-0.01664,0.55736,0.59419,0.70293,0.61271,0.49564,0.02827,0.29375,0.69915
0.01057,0.33413,-0.00524,0.30592,0.02189,0.04884,0.00572,0.69129,0.03123,0.02308,0.04994,0.39597,0.02555,-0.01363,0.01689,0.04243,0.48592,0.00428,0.02437,0.03686,0.59338,0.02028,0.44092,0.00531,0.43140,0.63923,0.33734,0.70448,0.48488,0.02327,0.67718,0.26245
0.04676,0.30870,0.04521,0.29050,0.01603,0.01349,0.01616,0.58572,0.05314,0.01088,0.03921,0.63183,0.05200,0.01993,0.03472,0.01810,0.52526,0.06253,0.03451,0.01349,0.34280,0.04203,0.71113,0.01602,0.24845,0.30033,0.57878,0.37942,0.46875,0.02693,0.64422,0.57891
0.03430,0.56965,0.01389,0.29467,0.03331,-0.00429,0.02129,0.36955,0.00981,0.02991,0.04353,0.69587,0.00670,0.02657,0.00305,0.01577,0.37842,0.04831,0.00902,0.05358,0.39148,0.05404,0.59180,0.01535,0.50321,0.73774,0.24732,0.40277,0.71272,0.01551,0.31004,0.54853
0.02915,0.57079,0.01145,0.67039,0.04890,0.01026,0.03546,0.73869,0.03437,0.02499,0.03074,0.32855,0.01709,0.01148,0.04177,0.03314,0.35843,0.01564,0.04461,0.04862,0.51867,0.03274,0.29925,0.04428,0.28028,0.70568,0.56208,0.70239,0.47110,0.06635,0.44994,0.41357
0.01975,0.37430,-0.00199,0.48593,0.07458,0.01149,0.02974,0.41655,0.05608,0.00624,0.05617,0.62440,0.02699,0.05142,0.04171,-0.00172,0.77605,0.01055,0.05366,0.01125,0.54775,0.00567,0.67913,0.01714,0.33825,0.48308,0.47239,0.44647,0.44372,0.01594,0.69539,0.54851
0.05127,0.49199,0.04994,0.60488,0.03131,-0.00626,0.05729,0.58630,0.02232,-0.00321,0.02250,0.45057,0.01530,0.05400,0.01848,0.04636,0.56694,-0.00339,0.02399,0.03914,0.39635,0.05725,0.62054,0.01961,0.65055,0.60095,0.40968,0.55581,0.51283,0.01720,0.71105,0.66193
0.02625,0.57131,0.02294,0.46596,0.04122,0.02208,0.04159,0.58520,0.02802,0.03170,0.03151,0.59247,0.03544,0.02496,0.05983,0.04132,0.65483,0.01320,0.02470,0.05259,0.47516,0.06632,0.69761,0.01359,0.34126,0.67533,0.55316,0.48833,0.39972,-0.03570,0.60659,0.64032
0.04318,0.33826,-0.00597,0.52506,0.03095,0.04157,0.02676,0.47527,0.02490,0.00911,0.01258,0.24328,0.01806,-0.01866,0.03807,0.03647,0.61108,0.04649,0.02753,0.03086,0.43803,0.01785,0.62707,0.02421,0.43327,0.76996,0.42536,0.49694,0.43179,0.02050,0.51810,0.36520
0.05332,0.52579,0.02732,0.73066,0.00709,0.03425,0.05482,0.37037,0.03341,0.01759,0.05658,0.72682,0.02684,-0.01851,0.06060,0.00648,0.40554,0.00393,0.03042,0.02279,0.44957,0.01267,0.63245,-0.00872,0.66494,0.65025,0.45385,0.65162,0.62051,0.01044,0.37226,0.31478
0.04985,0.63255,0.03528,0.40600,0.01461,0.08924,0.02605,0.46683,0.03042,0.05848,0.03197,0.29438,0.00002,0.03429,0.03544,0.06457,0.72889,0.01087,0.03406,0.02558,0.49246,0.01764,0.30275,0.01397,0.28220,0.27121,0.27939,0.35875,0.39191,0.02385,0.33979,0.36694
0.04472,0.38168,0.06724,0.75316,0.02531,0.03232,0.01472,0.45949,0.01219,-0.00823,0.05020,0.26483,0.04269,-0.00006,-0.01268,0.02144,0.36863,0.02983,0.03901,0.01311,0.39218,0.01169,0.60318,0.02217,0.47377,0.51578,0.72624,0.53987,0.38974,0.07181,0.57765,0.29447
0.03379,0.28056,0.00162,0.47496,0.01362,0.03483,-0.00083,0.43248,0.05400,-0.00796,0.02472,0.63614,0.01500,0.01857,0.06322,0.04547,0.36868,0.00296,0.02110,0.06257,0.27304,0.05346,0.42804,0.05129,0.44487,0.45257,0.26729,0.28058,0.69127,0.04553,0.28177,0.58839
0.03336,0.35902,0.05351,0.47965,0.04910,-0.00349,-0.01828,0.69654,0.05424,0.06788,0.03177,0.53147,0.00507,0.00557,0.01055,0.04791,0.48776,0.02177,0.04646,0.02910,0.44919,0.03201,0.62225,0.04818,0.65686,0.35083,0.37548,0.48373,0.66157,0.01985,0.56400,0.41206
0.03315,0.53204,0.00289,0.50777,0.05293,0.02396,0.05056,0.30079,-0.01569,0.02001,-0.01105,0.63120,0.03447,0.03594,0.02793,0.03141,0.39407,0.00804,0.03322,0.01551,0.53313,0.06070,0.59151,0.00696,0.36921,0.40191,0.46918,0.52877,0.59252,0.01323,0.45596,0.46533
0.06483,0.47862,0.00230,0.49151,0.04489,0.06455,0.02315,0.36403,0.03856,0.01346,0.04942,0.73301,-0.00098,0.01369,-0.00473,0.06343,0.33830,0.04939,0.04882,0.03706,0.71426,0.05815,0.68637,0.01930,0.45432,0.36182,0.69379,0.32616,0.40112,0.03368,0.56942,0.38399
0.06993,0.69128,-0.01387,0.41089,0.03436,0.00027,0.02084,0.48509,0.02457,0.04041,0.02499,0.72046,0.08038,0.02374,-0.00029,0.04858,0.51120,0.01036,0.06626,0.05189,0.33444,0.03732,0.74491,0.07117,0.57420,0.71569,0.62473,0.46479,0.46755,0.03508,0.35384,0.64311
0.00659,0.32216,0.01028,0.45099,0.01090,0.04427,0.00871,0.25876,0.04101,0.03065,0.03798,0.59390,0.03597,0.03528,0.01540,0.06335,0.37684,0.04106,0.02777,0.01580,0.67334,0.06813,0.40269,0.04528,0.39447,0.59779,0.24436,0.38882,0.53342,0.01055,0.71050,0.69992
0.04088,0.59632,0.03909,0.37944,0.05046,0.03840,0.01359,0.58617,0.02494,0.01854,-0.00677,0.68483,0.04819,0.04599,0.06936,0.03077,0.60303,0.04793,0.04244,0.02360,0.58107,0.04675,0.34623,0.03406,0.55357,0.32517,0.47128,0.49824,0.39323,0.04203,0.43277,0.67299
0.08805,0.38934,0.05158,0.30579,-0.00050,0.01702,0.04854,0.75240,0.07179,0.00564,0.01039,0.50418,0.04081,0.03719,0.02453,0.05614,0.53708,0.07289,0.01862,0.05373,0.43531,0.00969,0.64776,0.02087,0.38917,0.55775,0.27339,0.73777,0.55855,-0.01019,0.27567,0.46714
0.03360,0.58320,0.04926,0.37186,0.03980,0.03724,0.01868,0.35247,0.08348,0.02833,0.02195,0.35481,0.03731,0.02415,0.04004,0.02771,0.66451,0.01108,0.00786,0.03529,0.57131,0.03754,0.30643,0.02706,0.72080,0.44451,0.44549,0.61562,0.26718,0.04743,0.29429,0.63936
0.03268,0.23534,0.05258,0.55748,0.02214,0.02421,0.04618,0.37892,-0.00978,0.03885,0.02098,0.70502,0.02046,0.05001,0.01734,0.02116,0.73112,0.01750,0.02868,0.04586,0.53708,0.07582,0.60936,0.00913,0.30707,0.42318,0.36651,0.26622,0.38340,0.02615,0.39847,0.25723
0.03638,0.34366,0.00868,0.56910,0.04458,0.05417,0.01213,0.30084,0.01654,0.02852,0.01095,0.40980,-0.00507,0.04399,0.02956,0.01946,0.71008,0.01608,0.05100,0.03130,0.66306,0.01362,0.67290,0.03563,0.56399,0.58556,0.70819,0.61089,0.59584,0.09031,0.70674,0.27781
0.04669,0.48459,0.03800,0.35647,0.03658,0.01551,0.03374,0.60456,0.03687,0.01727,0.05939,0.34877,0.01950,0.02751,0.02836,0.02741,0.50384,0.05901,-0.01098,0.03796,0.58554,0.02277,0.50178,-0.00852,0.28211,0.64909,0.67185,0.46589,0.49763,0.03277,0.28209,0.53771
0.02764,0.47813,0.02170,0.26290,0.02690,0.04953,0.02435,0.41976,0.04616,-0.00495,0.02628,0.72416,0.03710,0.03514,0.00937,-0.01878,0.33198,0.04049,-0.01654,0.03317,0.25814,0.02568,0.49698,0.01006,0.72455,0.44407,0.37238,0.68965,0.35451,0.04642,0.41875,0.43432
0.02888,0.32031,0.02403,0.58925,0.04475,0.01182,0.04814,0.56628,0.01861,0.03065,-0.03111,0.45494,0.04546,0.06954,0.03098,0.04801,0.48860,0.03511,0.05291,0.03964,0.33351,0.02602,0.29315,0.05123,0.27900,0.55143,0.29756,0.58161,0.53007,0.03612,0.42731,0.49544
0.03567,0.35908,0.03391,0.66017,0.02478,0.02322,0.00319,0.78696,0.04567,0.02547,0.05209,0.74028,0.00918,0.04546,0.04293,0.04233,0.34210,0.06268,0.02431,0.03199,0.69388,0.05609,0.50442,-0.01990,0.27189,0.29064,0.41574,0.31486,0.68333,0.01500,0.47535,0.31412
0.31951,0.51563,0.01064,0.54429,0.02933,0.02702,0.01552,0.67873,0.03695,0.03033,0.03745,0.40095,0.00623,0.04234,0.01242,0.02024,0.74270,0.00787,0.03328,0.05861,0.68696,0.01617,0.37224,0.01654,0.41378,0.67182,0.53259,0.61961,0.62780,0.01880,0.42437,0.67156
0.59180,0.65222,0.03753,0.28650,0.01865,-0.00574,0.05809,0.38362,0.03884,0.04322,0.00547,0.52724,0.01294,0.03103,0.01389,0.00376,0.68533,0.04438,0.02974,0.02222,0.62802,0.05809,0.49776,0.02104,0.70970,0.45677,0.39066,0.75760,0.36334,0.02480,0.56043,0.37458
0.30769,0.78234,0.03474,0.75768,0.01897,0.01684,0.02387,0.28711,0.05661,0.04997,0.02010,0.25839,0.01608,0.03722,0.00904,0.04472,0.41429,0.05164,-0.00620,0.00241,0.54688,0.01098,0.37899,0.03581,0.49939,0.74766,0.44518,0.47883,0.72619,0.01531,0.53218,0.36332
0.76896,0.31096,0.01713,0.63870,0.05609,0.01497,0.04077,0.73898,0.02579,0.05155,0.02491,0.43081,0.00599,0.04240,0.05094,0.08715,0.60331,-0.00347,0.06621,0.00076,0.58654,0.02733,0.74435,0.03761,0.58248,0.37297,0.75265,0.42706,0.47743,0.02156,0.62331,0.61743
0.51584,0.69877,0.04521,0.71074,0.01801,0.03199,0.08650,0.38389,0.04519,0.06650,0.04631,0.42449,0.06444,0.06387,0.05799,0.04787,0.34869,0.03737,0.05102,0.01518,0.40802,0.06172,0.48738,0.05430,0.57167,0.68849,0.55199,0.51706,0.69024,0.04140,0.71697,0.40537
0.55619,0.25655,0.03762,0.27820,0.05313,0.02547,0.05291,0.29578,0.00587,0.01605,0.02630,0.47943,0.03153,0.02400,0.00809,0.01860,0.66707,0.01542,-0.00420,-0.00197,0.67368,0.00268,0.73009,0.02985,0.29098,0.44015,0.54975,0.68565,0.42288,0.05220,0.36867,0.55035
0.70313,0.29263,0.02364,0.50022,-0.02032,-0.01777,0.02165,0.32266,0.01745,0.00755,0.03668,0.66911,0.04292,0.02316,0.05604,0.03259,0.32034,0.06037,0.02815,0.01340,0.28098,0.04736,0.39467,0.01901,0.33768,0.56924,0.62925,0.41952,0.74125,-0.00357,0.57877,0.67983
0.72312,0.37704,0.01511,0.53710,0.01618,0.02504,0.01166,0.58079,0.06426,0.00338,0.00225,0.33949,0.03506,0.04303,0.01169,0.02938,0.49563,-0.00730,0.02646,0.03794,0.54549,0.02652,0.53849,0.02850,0.64581,0.34113,0.70402,0.40222,0.39672,0.00809,0.60888,0.29058
0.63894,0.47404,0.01039,0.42561,0.02306,0.02299,-0.00448,0.31910,0.02845,0.00187,0.09130,0.60944,0.04002,0.04732,-0.03074,0.05088,0.36778,0.06229,0.03425,0.03998,0.64182,0.01980,0.43359,0.03588,0.57280,0.29794,0.48862,0.58429,0.31401,0.02781,0.55923,0.62606
0.39865,0.28617,0.04756,0.30402,0.00916,0.01525,0.04213,0.28352,0.03830,0.02195,0.01550,0.22688,0.02748,0.01479,0.04135,0.06011,0.57107,0.01509,0.07052,0.04627,0.60851,0.06259,0.44391,0.05365,0.40309,0.41664,0.38841,0.49261,0.46600,0.03818,0.51517,0.55769
0.29874,0.44475,0.05474,0.32230,0.02127,0.03229,0.05180,0.65615,0.05400,0.03410,0.06557,0.63060,0.01629,-0.01026,0.03286,0.02806,0.55288,0.03120,0.05095,0.02804,0.65293,0.08141,0.42906,0.01625,0.67371,0.66120,0.64569,0.69500,0.47430,-0.00399,0.28905,0.52651
0.26050,0.74721,0.00412,0.24600,0.00033,0.03488,0.04906,0.68659,0.03443,0.04298,0.01891,0.59979,0.04035,0.05493,0.01158,0.04060,0.76697,0.05447,0.04886,0.02266,0.57702,0.03901,0.37830,-0.01250,0.39163,0.65743,0.69418,0.25062,0.64942,0.02360,0.34300,0.59143
0.54578,0.50876,-0.00712,0.32860,0.00895,0.02221,0.00442,0.34885,0.04009,0.00378,0.03290,0.66910,0.04697,0.04893,0.01989,0.04240,0.68173,0.06662,0.02304,-0.01770,0.40283,0.00338,0.49666,0.03745,0.38159,0.47402,0.36122,0.21290,0.25417,0.05999,0.76813,0.53799
0.39487,0.72230,0.04654,0.29257,0.01869,0.04771,0.05617,0.73463,0.02735,0.07392,0.06022,0.73095,0.03709,0.06892,0.00759,0.02230,0.59924,0.03662,0.01709,0.02089,0.39292,0.03450,0.39693,-0.01371,0.47488,0.78019,0.53887,0.35876,0.74280,0.02819,0.49155,0.70825
0.57862,0.59840,0.00107,0.54124,0.02970,0.05448,0.03231,0.53232,0.04245,0.03284,0.04233,0.76459,0.03477,0.00262,0.01716,0.05240,0.30111,0.02469,0.02330,0.03108,0.48440,0.05912,0.26751,0.04482,0.60326,0.74049,0.24926,0.29877,0.44196,0.08261,0.54273,0.27145
0.31568,0.57656,0.00271,0.59913,0.04833,0.01332,0.03727,0.31795,0.02704,0.01042,0.01999,0.61747,0.03785,0.02651,0.02968,0.03397,0.44813,0.00964,-0.00530,0.01563,0.64801,0.03808,0.71906,0.01035,0.68536,0.60248,0.64664,0.59175,0.69162,0.08120,0.54371,0.35266
0.51933,0.27455,0.01893,0.56621,0.07410,0.04844,0.03851,0.54800,0.01937,0.03293,0.03436,0.34961,-0.00082,0.01313,0.01538,0.02523,0.64498,0.07606,0.06291,0.04703,0.51435,0.05413,0.23912,0.01522,0.56096,0.48255,0.27131,0.52046,0.54781,0.01907,0.72890,0.33438
0.59621,0.23389,0.03829,0.53804,0.01129,0.04763,0.01536,0.41474,0.03889,0.01857,-0.01815,0.39940,-0.01134,0.01292,-0.00101,0.03430,0.33182,0.02424,0.03974,-0.00561,0.37517,0.02347,0.48429,0.05154,0.49899,0.31560,0.51428,0.63794,0.29739,0.05480,0.62698,0.27209
0.31917,0.72208,-0.00813,0.54207,0.02454,0.07310,0.01930,0.70621,0.03281,0.02406,0.02957,0.04650,0.00513,0.03789,0.03037,0.07664,0.24871,-0.00171,0.04422,0.04559,0.33329,0.03690,0.45666,0.01342,0.47071,0.25156,0.67688,0.46745,0.50889,0.04186,0.58973,0.27824
0.28551,0.71178,0.06216,0.27559,0.00035,0.03034,0.03302,0.40003,0.01116,-0.02060,0.03921,0.05207,0.03852,0.02901,0.01020,0.04005,0.58847,0.00802,0.01557,0.08085,0.62315,0.05918,0.42973,0.01237,0.59268,0.46626,0.30896,0.38231,0.72954,-0.02018,0.70749,0.66097
0.55905,0.48337,0.03573,0.55905,-0.00384,0.03511,0.06259,0.42249,0.04594,0.01230,0.00541,0.04946,0.04453,0.04096,0.03934,0.06105,0.44912,0.03161,0.01013,0.05488,0.47631,0.03995,0.29772,0.02755,0.30582,0.59419,0.43328,0.50994,0.43389,0.04258,0.74157,0.34575
0.38094,0.48178,0.03050,0.57724,0.02088,-0.02134,0.04625,0.67172,-0.00685,0.07301,0.08198,0.02602,0.05042,0.01987,0.03988,-0.00207,0.35147,0.03670,0.04306,0.05569,0.41490,0.02282,0.50325,0.06195,0.63210,0.28686,0.44219,0.52380,0.64812,0.04923,0.29536,0.47984
0.68216,0.54162,0.00937,0.40207,0.02378,0.04575,0.01537,0.56495,0.04024,0.00977,0.06598,0.03426,0.01558,0.03724,0.07105,0.02053,0.69323,0.01913,0.03963,0.02152,0.52093,0.04209,0.35219,-0.00944,0.65865,0.71884,0.72803,0.50082,0.57083,0.02902,0.41023,0.33505
0.30416,0.36133,-0.00649,0.66526,0.03299,-0.02569,0.01769,0.46513,0.00657,0.05851,0.00848,0.02622,0.04443,0.00874,0.05692,0.02322,0.59005,0.05694,0.01705,0.03785,0.70713,0.04216,0.67201,0.00790,0.74002,0.50774,0.51042,0.67884,0.52187,0.06197,0.64122,0.34923
0.58025,0.68837,0.03266,0.36235,0.04507,0.01809,0.03769,0.30146,0.04926,0.02125,0.01110,0.04510,0.04272,-0.00602,0.03313,-0.01257,0.30303,0.02040,0.08616,0.03202,0.54099,-0.00133,0.59702,0.03821,0.34896,0.67099,0.65840,0.48164,0.40939,0.04043,0.69245,0.55450
0.65038,0.42600,0.01357,0.71369,0.04350,0.06770,-0.00530,0.51178,0.03780,0.03368,0.05554,0.02188,0.01033,0.59590,0.00245,0.03207,0.48819,0.02973,-0.00419,0.01421,0.51596,-0.00342,0.57460,0.05841,0.68479,0.73391,0.36897,0.58548,0.46528,0.02272,0.58944,0.40484
0.53774,0.61265,0.00454,0.31318,0.03404,0.05748,0.03318,0.39889,0.05481,0.02852,0.03875,0.04480,0.03935,0.30644,0.02790,0.03753,0.32496,0.05000,0.03613,0.02901,0.24675,-0.01698,0.32247,0.03110,0.48003,0.47870,0.33367,0.40176,0.41763,0.00758,0.56115,0.40582
0.47231,0.42397,0.03975,0.56307,0.01616,0.05076,0.02237,0.71315,0.06067,0.01837,0.03934,0.03075,0.07078,0.75766,0.04609,0.00154,0.66330,0.03093,0.00821,0.01470,0.67239,0.02629,0.28998,0.06882,0.46576,0.39942,0.31683,0.31795,0.73770,0.06543,0.36953,0.32562
0.75783,0.60702,0.03077,0.39955,0.03548,0.01845,0.01252,0.66420,0.03166,0.01885,-0.00401,0.01044,0.02762,0.30858,0.04329,0.03560,0.22873,0.03475,0.04330,0.06017,0.73692,0.04957,0.29192,0.06699,0.61244,0.44480,0.34532,0.34490,0.32012,0.01954,0.60029,0.36990
0.28184,0.25785,0.03969,0.52055,0.04853,0.03572,0.04475,0.54449,0.03897,0.01564,0.04222,0.05051,0.04528,0.34663,0.05838,0.01060,0.77696,0.03071,0.01407,0.03495,0.60257,0.01337,0.50441,0.00811,0.70781,0.66158,0.27296,0.71650,0.37854,0.03330,0.34401,0.41834
0.64474,0.60215,0.03984,0.34593,0.04027,0.01315,0.01348,0.45876,-0.00524,0.00533,0.02132,0.07607,0.09313,0.62086,0.00728,0.04048,0.44625,0.03361,0.05760,0.02353,0.41713,-0.00518,0.63735,0.03768,0.29385,0.23236,0.21903,0.38843,0.26096,0.02872,0.39056,0.42521
0.50089,0.59886,0.00935,0.56657,0.00577,0.06816,0.05425,0.44291,0.02048,0.00304,0.02247,0.05835,0.02647,0.68533,0.08218,0.02048,0.33268,0.01013,0.02013,0.02003,0.52388,0.01381,0.25775,0.03729,0.42420,0.66917,0.50503,0.33503,0.43786,0.01664,0.34624,0.33920
0.46290,0.43519,0.01439,0.63734,0.04148,0.04163,0.02871,0.66556,0.00745,0.02177,0.06859,-0.01433,0.04716,0.28982,0.00989,0.05022,0.42362,0.06288,0.00705,0.03985,0.64763,0.01659,0.74898,0.02886,0.57658,0.73312,0.66129,0.47830,0.29343,0.01594,0.72089,0.48973
0.32939,0.67384,0.02804,0.30980,0.06193,0.03655,0.02553,0.41995,0.06338,0.04912,0.06894,0.02556,0.01037,0.42767,0.02651,0.03632,0.45051,0.02722,0.05413,0.03277,0.37035,0.08397,0.68644,0.02667,0.46497,0.52468,0.71411,0.57264,0.42043,0.06027,0.42008,0.62736
0.61536,0.40100,0.01606,0.25580,-0.02435,0.06519,0.04017,0.73912,0.01206,0.06322,0.03056,0.03597,0.00688,0.37144,0.01409,0.06513,0.59749,-0.01160,0.04313,0.04542,0.30887,0.01880,0.50548,0.01247,0.70260,0.69525,0.39471,0.70696,0.32903,0.01431,0.36480,0.61000
0.70395,0.34820,-0.00199,0.42469,-0.03627,0.02196,0.03927,0.40269,-0.00712,0.02641,0.00700,0.03569,0.06509,0.69570,0.03278,0.01118,0.28627,0.03558,0.02868,0.02332,0.44976,0.04902,0.28094,0.00506,0.52718,0.62861,0.41304,0.60904,0.60978,0.03199,0.41459,0.73559
0.60973,0.66467,0.03025,0.53192,0.02934,0.00667,0.06137,0.64133,0.08336,0.04778,0.00329,0.02187,0.03160,0.52266,0.02320,0.03156,0.65302,0.00182,0.02571,-0.01068,0.29653,-0.01614,0.70931,0.04400,0.67752,0.37380,0.53632,0.63644,0.45075,0.00446,0.72047,0.65567
0.64019,0.66962,0.02816,0.34302,0.00645,0.04391,0.05234,0.44990,0.00055,0.04350,0.02230,0.04105,0.02301,0.54126,0.07592,0.06553,0.46504,0.07122,0.01546,0.02869,0.36283,0.04160,0.37091,0.06446,0.72558,0.72548,0.72671,0.70807,0.65172,0.03813,0.38112,0.33115
0.28206,0.32319,0.02830,0.29342,0.04666,0.06439,0.07764,0.68385,0.00474,0.05407,0.05093,0.04379,0.06173,0.44541,0.03202,-0.01203,0.32884,-0.01669,0.04823,0.05194,0.27936,0.01016,0.61521,0.02485,0.55056,0.72846,0.26688,0.34577,0.36883,0.00374,0.52382,0.37770
0.45015,0.42177,-0.01357,0.37143,0.04119,0.05077,0.03431,0.27635,0.02569,0.00694,0.03269,0.02827,0.01347,0.35778,0.01345,0.00018,0.56945,0.03850,0.02135,0.01855,0.72597,0.01128,0.35047,0.03421,0.35851,0.54635,0.52220,0.56086,0.51172,0.04930,0.27510,0.46017
0.51719,0.60311,0.02482,0.28462,-0.02232,0.05314,0.00860,0.42561,0.05204,0.02773,0.05360,0.00787,0.00486,0.55094,0.06622,0.02071,0.31137,0.02040,0.02645,0.02045,0.34513,-0.00391,0.51841,-0.00585,0.33431,0.61528,0.43029,0.44563,0.30894,0.02425,0.32694,0.32039
0.64010,0.58846,0.02110,0.60581,0.00374,0.04750,0.01802,0.48624,0.03562,0.08218,0.03440,-0.00921,-0.00493,0.60360,0.03663,0.02711,0.31053,0.07068,0.05934,0.00254,0.47265,0.05802,0.33124,0.03676,0.57132,0.30029,0.48701,0.56104,0.44193,0.02060,0.63814,0.43009
0.73853,0.48369,0.03555,0.46665,0.06364,0.05378,0.06899,0.30009,-0.01633,0.03497,-0.02014,0.02607,-0.00937,0.49483,0.00796,0.02800,0.28176,0.01197,0.00389,0.03704,0.34393,0.03087,0.57969,0.07892,0.34794,0.68030,0.40270,0.33363,0.31905,-0.00086,0.65403,0.51036
0.26419,0.57605,0.04333,0.65126,0.00371,0.04121,0.01165,0.67612,0.03165,0.03428,0.04656,0.06149,0.06106,0.45106,0.03690,0.02848,0.60565,0.02857,0.03311,0.03269,0.51542,-0.01368,0.64013,0.01330,0.69033,0.69308,0.33711,0.68688,0.27228,0.04091,0.49143,0.43537
0.27697,0.26617,-0.00005,0.33392,0.03119,0.02242,-0.00147,0.60619,0.04590,0.00826,-0.00939,0.02930,0.03246,0.72520,0.03632,0.05150,0.69954,0.02705,0.02765,0.05971,0.29049,0.03813,0.37530,0.04958,0.43220,0.68437,0.68189,0.27066,0.75532,0.05672,0.69016,0.42499
0.30357,0.45220,0.00264,0.70118,0.05012,0.00475,0.09058,0.51366,0.05975,0.02231,0.03737,0.03267,-0.00706,0.57243,0.00480,-0.00316,0.61514,-0.01709,-0.00496,0.06211,0.49568,0.01726,0.33760,0.04571,0.52131,0.59023,0.76368,0.65529,0.58453,0.00782,0.54225,0.41799
0.29854,0.36348,0.00743,0.38463,0.00856,-0.00827,0.02851,0.25166,0.05570,0.05475,0.03120,-0.00179,0.02032,0.70207,-0.00611,0.05452,0.64100,-0.02275,0.03200,0.00456,0.43769,0.02340,0.69039,0.05335,0.32885,0.32067,0.58702,0.47996,0.65416,-0.01503,0.66115,0.36884
0.44658,0.55566,0.04449,0.68388,0.05960,0.07002,0.02056,0.72546,0.03357,0.03251,0.06050,0.07007,0.01861,0.61461,-0.00020,0.03775,0.50506,0.08852,0.00900,0.00159,0.58882,0.03330,0.46852,0.01805,0.25079,0.76118,0.35080,0.31292,0.34299,0.05080,0.46886,0.62768
0.49142,0.67083,0.06746,0.30964,0.05705,0.03794,0.02452,0.61763,0.01616,0.03982,0.03206,0.00792,0.01467,0.22217,0.04232,0.05585,0.37789,0.00665,0.01189,-0.01051,0.30299,0.00350,0.34899,-0.01285,0.63437,0.55401,0.51565,0.61237,0.33303,0.04991,0.24894,0.68511
0.67711,0.57405,0.05242,0.30091,0.04243,0.02584,0.03882,0.33715,0.00306,0.02293,0.03735,0.02997,-0.01294,0.32115,0.07470,0.01763,0.40527,0.01418,0.04522,0.04002,0.53030,0.02055,0.36729,0.04948,0.35478,0.74074,0.45143,0.44275,0.28951,0.04801,0.40267,0.26728
0.60382,0.36155,0.04933,0.41640,0.03294,0.05540,0.03932,0.28835,0.02897,-0.02346,0.04899,0.04656,0.07852,0.44990,0.04591,0.00965,0.58635,0.06427,0.01548,0.02451,0.58244,0.03321,0.36916,0.02304,0.66239,0.62679,0.62757,0.38085,0.51711,0.03204,0.40839,0.27784
0.47722,0.48650,0.09002,0.63319,0.00107,0.04988,-0.03042,0.37473,0.04053,0.00120,0.04522,0.03211,0.03005,0.73767,0.02480,0.03172,0.43666,0.03039,0.00380,0.04232,0.60927,0.01559,0.39150,0.07525,0.50333,0.44004,0.64135,0.72948,0.34452,0.02712,0.27348,0.65700
0.51817,0.47178,0.03955,0.37003,0.02791,0.00762,0.02923,0.72090,0.04494,0.07123,0.03205,0.02213,0.02703,0.38877,0.04745,0.05687,0.40711,0.00057,0.01619,0.06494,0.31142,0.01326,0.44680,0.04307,0.65399,0.61596,0.34277,0.53419,0.27620,0.03515,0.45596,0.56030
0.44714,0.55633,0.03132,0.30920,0.05124,0.05376,0.00771,0.51139,0.02014,0.04888,0.03664,0.05109,0.00083,0.34504,-0.00827,0.01727,0.66486,0.07238,0.01824,0.03732,0.70484,0.04250,0.28904,0.03359,0.72898,0.36131,0.72425,0.28734,0.73963,0.03574,0.48409,0.46445
0.67625,0.56854,0.04546,0.53172,0.07982,0.05953,0.04821,0.54734,0.01808,0.03201,0.02703,0.00626,0.02482,0.41464,0.05757,0.03499,0.57518,0.03725,0.00461,0.04331,0.45067,0.00983,0.63173,0.01864,0.41389,0.72446,0.59797,0.65003,0.72711,0.02923,0.38969,0.68213
0.58702,0.71742,0.02023,0.70077,0.05278,0.03794,0.01101,0.70407,0.06302,0.02222,0.03647,0.04136,0.01743,0.59779,-0.00631,0.04802,0.38648,0.03780,0.00919,0.02043,0.27210,0.05954,0.37323,0.02991,0.25819,0.62564,0.34359,0.25360,0.59820,0.00336,0.41144,0.44406
0.22927,0.40315,0.09235,0.52313,0.01319,0.02834,0.03150,0.54737,0.00874,0.02715,0.04817,-0.00196,0.03498,0.73839,0.05880,0.02189,0.64510,-0.01234,0.01555,0.01483,0.33757,0.02214,0.34590,0.04280,0.43844,0.66163,0.44203,0.36150,0.69365,0.05711,0.52559,0.54887
0.63264,0.35928,0.04762,0.34236,0.06437,0.02836,0.03184,0.75598,0.03955,0.01858,0.02592,0.05389,0.02663,0.42458,0.01928,0.05184,0.54766,0.03585,0.02665,-0.00811,0.26617,0.02226,0.49698,0.04583,0.31022,0.56457,0.31668,0.70223,0.46118,0.02618,0.32532,0.57684
0.50166,0.62849,0.05670,0.44745,0.07453,0.03267,0.03699,0.27293,0.01545,0.03475,0.01072,0.01862,0.03559,0.59661,0.02535,-0.00290,0.25428,0.06391,0.03753,0.01591,0.61688,0.00337,0.46210,0.01824,0.64856,0.36010,0.53658,0.41012,0.69441,0.03920,0.58516,0.70408
0.66652,0.69129,0.04114,0.74562,0.07159,0.03205,0.01096,0.44384,0.06484,0.03076,0.01461,-0.00127,0.01887,0.34584,0.04907,0.01159,0.66218,0.02435,-0.00434,0.02905,0.43964,0.00301,0.59439,0.03007,0.67014,0.28317,0.73625,0.31775,0.29958,0.01260,0.77672,0.27626
0.69146,0.67956,0.02008,0.75702,-0.00544,0.01551,-0.00450,0.56298,0.02068,0.02477,0.01720,-0.00307,0.06202,0.54211,0.03778,0.02049,0.35460,0.01636,0.05598,0.05176,0.00556,0.03512,0.51001,0.00728,0.29316,0.54553,0.63067,0.65021,0.36109,0.03503,0.43460,0.47600
0.38811,0.63117,0.02631,0.37695,0.02351,0.03922,0.04422,0.40885,0.00967,0.02169,0.01418,0.06153,0.02321,0.44462,0.02771,0.06106,0.47905,0.04205,0.03336,0.01463,0.04788,0.01312,0.35139,-0.00020,0.01295,0.44959,0.72515,0.58893,0.49397,0.01299,0.29089,0.53774
0.63151,0.30754,0.03373,0.75742,0.02410,0.04360,0.00460,0.73877,0.01445,0.02866,0.03598,0.03230,0.00721,0.48666,0.04572,0.01733,0.39906,0.01348,0.01424,0.07501,0.05933,0.02630,0.73918,0.06295,0.02232,0.41959,0.47205,0.41510,0.28681,0.01537,0.50174,0.34401
0.47453,0.49877,0.03985,0.56309,0.03678,0.06674,-0.00035,0.65059,0.01369,0.05537,0.06651,0.03176,0.03205,0.65510,0.02432,0.02102,0.37195,0.02199,0.04444,0.05010,0.00804,0.02621,0.37221,0.02254,0.02028,0.58139,0.70031,0.50400,0.41414,0.02854,0.43664,0.62981
0.39245,0.24497,0.01318,0.39628,0.02355,0.03271,0.02314,0.27332,-0.00292,0.02563,0.02053,0.00972,0.01876,0.57189,-0.00536,0.03680,0.52408,0.05759,0.04290,0.02720,0.01620,0.00938,0.64482,0.04310,0.01717,0.32440,0.44862,0.64098,0.72474,0.02879,0.38641,0.54232
0.77165,0.38162,0.02138,0.57148,0.06294,0.01844,0.05991,0.39613,-0.00422,0.02535,0.04115,0.02393,0.01675,0.54977,0.01830,0.02291,0.38855,0.02704,0.02948,0.00545,0.03987,0.02038,0.50000,0.04111,0.03135,0.43919,0.61529,0.36504,0.55536,0.04191,0.47702,0.73811
0.45414,0.31470,0.04961,0.55070,0.01947,0.02857,0.00356,0.32146,0.01649,0.05493,0.01871,0.02829,0.03527,0.29192,0.02780,0.03242,0.54668,0.01094,0.04730,0.07283,0.05122,0.02599,0.52974,0.04451,0.03301,0.65640,0.26479,0.29864,0.34669,0.04806,0.67929,0.41442
0.54394,0.26870,0.00464,0.71459,0.04834,0.07236,0.00552,0.60093,0.05480,-0.00055,0.04003,0.03208,0.05461,0.55944,0.02805,0.01614,0.34201,0.03668,0.03252,0.02862,0.04800,0.04456,0.68399,0.02956,0.01267,0.47807,0.30557,0.33005,0.48274,0.02737,0.55775,0.47851
0.44895,0.43016,0.05406,0.44284,0.02830,0.02953,0.02857,0.60431,-0.01221,0.06002,0.05807,0.03552,0.03617,0.39630,0.01701,0.05487,0.64010,0.01956,0.04948,0.03136,0.03841,0.03138,0.37325,0.04704,0.01747,0.59773,0.54008,0.28855,0.65208,0.01430,0.50387,0.54444
0.33039,0.38593,0.04870,0.42197,0.02477,0.04147,0.07813,0.70053,0.02065,0.01302,0.02128,0.02992,0.03083,0.27745,0.02277,0.05977,0.51049,0.00816,0.02465,0.01057,0.04189,0.00545,0.28854,0.03109,0.00035,0.73526,0.63947,0.31847,0.26771,0.05532,0.26725,0.36829
0.63260,0.75941,0.02332,0.54734,0.03848,0.01966,0.00500,0.65171,0.05772,0.01872,0.01132,0.04664,0.04625,0.37874,0.04518,0.03637,0.44432,0.00234,0.04104,0.01913,0.05848,0.01298,0.68311,0.04055,0.04065,0.54857,0.72674,0.58134,0.27939,0.06507,0.27742,0.34944
0.30710,0.48610,0.04189,0.57048,0.04620,0.00358,0.00690,0.57918,0.03694,0.02563,0.00965,0.01518,0.04705,0.35523,0.00806,0.02780,0.62974,0.01728,0.04115,0.00882,0.02888,0.08574,0.69829,0.00642,0.02411,0.26250,0.39897,0.70480,0.59168,0.03728,0.31700,0.62064
0.32782,0.51714,-0.00743,0.75551,0.06245,0.01435,0.01211,0.56465,0.04247,0.02612,0.02693,0.07117,0.01776,0.64959,0.03606,0.04364,0.32402,0.04340,0.01939,-0.00122,0.01627,0.04556,0.59746,0.02694,0.01406,0.32355,0.59576,0.32743,0.52141,0.04386,0.66322,0.42539
0.46517,0.30861,0.05735,0.51963,0.05745,0.01746,0.01637,0.39884,0.02735,0.02996,0.01284,0.04108,0.01491,0.32023,0.01843,0.04211,0.49893,0.01780,0.03241,0.03544,0.00207,0.02063,0.31109,0.00716,-0.01038,0.39873,0.36974,0.70957,0.68135,0.02578,0.38499,0.38379
0.70145,0.63844,0.01608,0.31948,0.02941,0.01100,0.03167,0.70083,0.03627,0.00124,0.02069,0.02497,0.03684,0.68510,0.03446,0.06540,0.34682,0.05618,0.00735,0.06162,0.01948,0.02261,0.70616,0.06152,0.03433,0.45206,0.40136,0.71200,0.73962,0.00652,0.44160,0.57001
0.57286,0.29263,0.02111,0.42998,0.07372,0.02512,0.03824,0.64073,0.05015,0.05389,0.03724,0.03174,0.04830,0.32490,0.02346,0.01189,0.72066,0.05405,0.02266,0.03713,0.02374,0.02968,0.70205,0.04817,0.00510,0.34809,0.45367,0.27054,0.68886,-0.00728,0.44708,0.59423
0.49583,0.32630,0.02889,0.65050,0.03509,0.01621,0.04555,0.29798,0.02668,0.03983,0.03684,0.01347,0.04916,0.48317,0.05080,0.01865,0.22528,0.03249,0.01661,0.02357,-0.01726,0.02571,0.42970,0.03878,0.05404,0.36360,0.45628,0.54173,0.25756,0.06095,0.59050,0.34443
0.34680,0.71532,0.03405,0.32526,-0.01550,0.06158,0.04275,0.38802,0.04678,0.04225,0.05893,0.03375,0.04229,0.64750,0.02494,0.05162,0.62849,0.04259,0.04781,-0.00500,0.01440,0.01248,0.55309,0.00841,0.05200,0.43626,0.50847,0.69622,0.67189,0.01708,0.58237,0.60905
0.27560,0.66432,0.05347,0.67071,0.03250,0.01978,-0.02916,0.43517,-0.00320,0.06233,0.06606,0.01933,0.04169,0.61170,0.03158,-0.00111,0.33386,0.02834,0.02587,0.02552,0.01498,0.02943,0.52092,0.04339,0.04936,0.69132,0.45570,0.34778,0.48946,0.00139,0.26679,0.35528
0.29591,0.61768,0.01572,0.77194,0.06775,0.01566,0.06941,0.51211,0.00735,0.00448,0.01566,0.04259,0.02917,0.70255,0.05539,0.02343,0.63055,0.01272,0.04155,0.00959,0.02823,0.00538,0.42893,0.03931,0.01763,0.61489,0.73377,0.51472,0.39557,-0.00944,0.44915,0.56354
0.71885,0.28672,0.05433,0.29117,-0.00443,0.05533,-0.01110,0.28051,0.06411,-0.00482,0.02345,0.01434,0.02334,0.53746,0.03678,0.02215,0.58534,-0.01441,0.02248,0.01293,0.05734,0.03099,0.50213,0.01720,0.05696,0.36130,0.23826,0.73256,0.24586,0.05259,0.53850,0.30099
0.63365,0.25451,0.02156,0.65468,0.04446,0.02483,0.02295,0.28940,-0.03692,0.01090,0.01268,0.04277,0.02172,0.53706,0.03188,0.03344,0.72592,0.06317,0.01991,0.00199,-0.00973,0.07012,0.39129,0.03838,0.03136,0.42954,0.61296,0.60575,0.66030,0.01855,0.38634,0.67511
0.60198,0.44505,0.02967,0.51512,0.06145,0.02724,0.05250,0.46723,0.02314,0.03525,0.06027,0.04952,0.03150,0.47566,0.04266,0.04296,0.25231,0.04493,0.01702,0.05268,0.04378,-0.01464,0.27814,0.01956,0.02513,0.58494,0.24505,0.39851,0.48469,0.03707,0.53705,0.38789
0.57988,0.69518,0.01231,0.52153,0.02045,0.00043,-0.01126,0.69417,0.04769,0.03921,0.00365,0.05220,0.01344,0.57421,0.01817,0.03662,0.39152,0.03236,0.03474,-0.00038,0.01154,0.04365,0.56446,0.02181,0.02839,0.71092,0.60958,0.58607,0.74607,0.02887,0.63930,0.34118
0.44401,0.47819,0.04842,0.71118,0.00975,0.01163,0.01423,0.38460,0.05548,0.05155,0.05825,0.03709,0.03177,0.31109,0.03148,0.00545,0.49730,0.02858,0.05329,0.02696,0.00452,0.05617,0.67896,0.02648,0.03623,0.24998,0.65704,0.70777,0.44395,0.02457,0.53403,0.36871
0.47859,0.32662,0.04622,0.47126,0.04480,0.05450,0.02899,0.26431,0.04824,0.03395,0.05358,0.02751,0.03355,0.35931,0.04941,-0.00527,0.68618,0.01510,0.04345,0.03538,0.02542,0.02020,0.32889,-0.00269,0.02511,0.61918,0.58481,0.46380,0.34098,0.03662,0.53270,0.59809
0.72291,0.33101,0.04563,0.33603,0.06357,0.05423,0.02991,0.60042,0.02002,0.01694,0.03340,0.07776,0.04444,0.30998,0.01746,0.04124,0.56798,0.01733,0.02522,0.04394,0.04372,0.01452,0.72217,0.01322,0.00215,0.71100,0.52041,0.58945,0.27754,0.00082,0.63156,0.68828
0.69584,0.61324,0.01348,0.70668,0.02954,0.04252,0.03002,0.24843,0.06390,-0.00564,0.05453,0.05213,0.04676,0.52466,0.04885,0.01853,0.67150,0.01644,0.05753,0.02110,-0.00359,0.05364,0.34097,0.03152,0.07142,0.65507,0.31037,0.25426,0.52320,0.04157,0.71444,0.36451
0.59491,0.42201,0.03804,0.62627,0.03315,0.05863,0.07556,0.46476,0.05769,0.06548,-0.00533,0.03227,0.01834,0.58293,0.02042,0.06243,0.62529,0.02808,-0.00391,0.03722,0.04768,-0.00223,0.39153,-0.01410,0.02755,0.49748,0.59645,0.49521,0.70842,0.03992,0.73127,0.46276
0.45546,0.37803,0.01995,0.25577,0.02631,0.02879,-0.00881,0.59379,0.00313,0.07081,0.06476,0.03592,0.01174,0.35499,0.01692,0.02428,0.68204,0.03622,-0.02889,0.05203,0.03091,0.03989,0.32933,0.03115,0.04965,0.56943,0.39998,0.72770,0.54700,-0.00904,0.42694,0.69597
0.49174,0.34373,0.02496,0.47390,0.03780,-0.03884,0.04586,0.65615,0.05046,0.03579,0.06575,0.02155,0.08311,0.34766,0.00208,-0.02782,0.65671,0.00429,0.04345,0.01953,0.00304,0.02228,0.74106,0.05587,0.03485,0.59596,0.40692,0.37016,0.27461,0.06298,0.55333,0.25993
0.43159,0.32893,0.03789,0.26877,0.05527,0.04369,0.07857,0.62080,0.01945,0.03265,0.00810,0.04391,0.02476,0.44609,0.02243,0.00421,0.40677,0.06411,0.02045,0.05299,0.02810,0.04422,0.54426,0.04315,0.03827,0.52383,0.62997,0.73270,0.37192,0.04680,0.38623,0.70061
0.68699,0.63668,0.03350,0.43384,0.00447,0.04700,0.02039,0.67857,0.08199,0.00210,-0.00815,-0.01699,0.03488,0.55068,0.04219,0.03693,0.34623,0.02994,0.01385,0.02113,0.03922,0.03057,0.41649,-0.00186,0.10017,0.46271,0.24180,0.49733,0.53883,0.03510,0.45283,0.75916
0.70895,0.26880,0.05282,0.53414,0.07019,0.08549,0.05234,0.70835,0.05626,0.02168,0.02001,0.00845,0.03460,0.35745,0.05057,0.05785,0.22235,0.00711,0.07282,0.00317,0.08211,0.03011,0.69659,0.08112,0.01548,0.32879,0.46488,0.40247,0.66328,0.01728,0.65327,0.49484
0.29437,0.72573,0.01539,0.70051,0.03126,0.03781,0.00381,0.64341,0.00719,0.04875,0.04539,0.01408,-0.00152,0.71908,0.03237,0.00534,0.61892,0.04942,0.01148,0.02874,0.04114,0.03518,0.68063,0.02584,0.02080,0.35358,0.37167,0.32690,0.36034,0.07963,0.53625,0.27366
0.55358,0.66441,0.05027,0.24781,0.05121,0.03346,0.04798,0.42109,0.03658,0.06133,0.02290,0.03818,0.03369,0.30771,0.03419,0.01539,0.50260,-0.00038,0.07297,0.02137,0.04129,0.00930,0.54765,0.05385,0.00843,0.38488,0.69709,0.42847,0.37645,0.01395,0.48008,0.48347
0.39759,0.47748,0.00665,0.44685,0.01271,0.02459,-0.01264,0.38207,0.02027,0.01702,0.04544,0.02514,0.04071,0.30124,0.07297,0.02213,0.66804,0.01257,0.04073,0.02976,0.01922,0.04639,0.31388,0.03797,0.02189,0.49906,0.32888,0.36945,0.26150,0.03896,0.53122,0.59073
0.46299,0.69725,0.04888,0.33121,0.03405,0.01089,0.02331,0.48781,0.06148,0.06384,0.03619,0.05174,0.03261,0.28516,0.05649,0.02225,0.60834,0.05055,0.02493,0.02827,0.06447,0.06361,0.43197,0.02652,0.01714,0.57585,0.73666,0.52361,0.28541,0.01359,0.64558,0.31520
0.71871,0.31692,0.04735,0.50908,0.06012,0.00727,0.05261,0.42916,0.03990,0.03217,0.02859,0.01837,0.00926,0.61363,0.01324,0.04457,0.39096,0.05300,0.02312,0.00972,0.04077,0.03713,0.53262,0.06166,0.07296,0.55465,0.61901,0.28981,0.56614,0.02928,0.26206,0.71570
0.37860,0.48822,0.00416,0.40911,0.04543,0.03714,0.01480,0.40915,0.00553,0.04116,0.03200,0.04909,0.00933,0.70637,0.06036,0.04839,0.36311,-0.01392,0.01669,0.02067,0.04379,0.03159,0.39464,0.00949,-0.01060,0.52654,0.57432,0.68019,0.64245,0.04387,0.54578,0.52812
0.26243,0.55327,-0.00581,0.54338,0.02682,0.04488,0.03852,0.32682,0.04803,0.05152,0.05601,-0.00035,0.03374,0.37610,0.04107,0.00973,0.37366,0.06860,0.03697,0.04192,0.03697,0.00164,0.36917,0.00267,0.02064,0.29367,0.60038,0.68501,0.40303,0.04323,0.34423,0.24311
0.56790,0.33838,0.02654,0.48919,0.08154,0.00624,0.00655,0.53823,0.01965,0.02479,0.02996,0.02561,0.01821,0.65841,0.03814,0.02730,0.27658,0.04071,0.01345,0.05666,0.04760,-0.00366,0.63460,0.03428,0.03350,0.52268,0.40864,0.71738,0.72333,0.01450,0.63678,0.46891
0.38559,0.26531,0.03008,0.29438,-0.00402,0.06966,0.04937,0.39204,0.03422,0.02145,0.03076,0.05285,0.04762,0.34416,0.03496,0.04119,0.43163,0.02711,0.03638,0.04849,0.04720,0.04106,0.55432,0.00048,0.02599,0.62839,0.37274,0.52768,0.37290,0.02983,0.47437,0.73399
0.49537,0.75901,0.01707,0.48969,0.08792,0.03562,0.01144,0.59753,0.02241,0.00072,0.02530,0.01159,0.02029,0.69317,0.03081,0.02267,0.62911,0.02628,0.01855,0.04951,0.02972,0.03657,0.49433,0.05016,0.07331,0.41905,0.27419,0.43661,0.59542,0.06089,0.66630,0.53883
0.62814,0.69703,0.03419,0.72781,0.07491,0.03366,0.04372,0.67678,0.00486,0.03355,0.05289,0.03856,0.05471,0.57564,0.01696,0.01172,0.54785,0.05352,0.01755,-0.00687,0.01592,0.01290,0.55803,0.02702,0.02403,0.44077,0.29904,0.24039,0.30997,0.01233,0.71588,0.60594
0.58570,0.23747,0.05182,0.35284,0.00121,0.00879,0.04757,0.27595,0.04139,0.05818,0.01300,0.05121,0.02466,0.54125,0.04452,-0.02287,0.43476,0.03425,0.05760,0.00284,0.05033,-0.00367,0.45105,0.03701,0.04482,0.57800,0.69087,0.29629,0.36291,0.03145,0.25571,0.59593
0.52597,0.59430,0.01696,0.31147,0.04358,0.03472,0.00081,0.32042,0.02546,0.03394,0.02078,0.00670,0.04621,0.36331,-0.00009,0.02746,0.52610,0.03392,0.06263,0.02303,0.05605,0.06775,0.49601,0.01531,0.06114,0.41733,0.52724,0.44242,0.37912,0.03465,0.36336,0.72520
0.36453,0.57410,0.03472,0.41641,0.01482,0.02061,0.00134,0.32783,0.04337,0.01260,0.02983,0.05170,0.00703,0.73641,0.01157,0.05826,0.40228,0.03544,0.00329,0.02019,0.04904,0.03506,0.51505,0.03173,0.05515,0.30883,0.33592,0.44996,0.34399,0.04493,0.54003,0.28020
0.42799,0.61571,0.05749,0.59859,0.02101,0.01168,0.01947,0.51299,0.03704,0.04746,0.05374,-0.00781,0.06284,0.52599,0.01868,0.08758,0.54664,0.03287,0.04813,0.01090,0.02131,0.05447,0.53391,0.04040,-0.00992,0.64769,0.47218,0.70716,0.64998,0.02630,0.32679,0.60375
0.42775,0.70875,0.01849,0.33007,0.00563,0.02009,0.01181,0.52293,0.02337,0.03836,0.04173,0.06758,0.01654,0.66520,0.05608,0.05271,0.65888,0.05861,0.00162,0.02277,0.02117,0.03916,0.54628,0.05863,0.04539,0.29957,0.59749,0.34405,0.71784,0.04742,0.36454,0.26869
0.46657,0.48826,0.01995,0.38783,0.05822,0.03189,0.05390,0.68565,0.04048,0.06718,0.02436,0.03460,-0.00022,0.33566,0.03239,0.00913,0.40008,0.03543,0.00816,0.02439,0.02112,0.05048,0.52464,0.02142,0.02476,0.44315,0.37319,0.48964,0.61844,0.01295,0.45547,0.52478
0.47043,0.44389,0.01687,0.48094,0.02886,0.01793,-0.02047,0.38855,0.02362,-0.00741,0.03263,0.02726,0.01009,0.71326,0.01419,0.02910,0.62486,0.05268,0.04375,0.05696,0.03073,0.02925,0.27690,0.01607,-0.00170,0.55985,0.34301,0.55349,0.45660,-0.01100,0.71431,0.31348
0.68106,0.25061,-0.00951,0.40086,0.00940,0.03747,0.06401,0.33767,0.04489,0.00243,0.06785,0.07317,0.06711,0.72972,0.04351,0.03964,0.69149,0.06244,0.04091,0.03194,0.00388,0.02657,0.50226,0.02197,0.04990,0.33759,0.43719,0.48313,0.39820,-0.02007,0.72915,0.59652
0.66953,0.51846,0.01864,0.48859,0.06678,0.01460,0.02244,0.51754,0.01773,0.00815,0.02350,0.04269,0.05214,0.37046,0.01881,0.00687,0.40524,0.02296,0.03706,0.01051,0.03403,0.00543,0.72880,0.03509,0.01343,0.72966,0.22005,0.65195,0.30762,0.03545,0.55386,0.41905
0.33659,0.68243,0.01900,0.76407,0.03523,0.04250,0.01725,0.65120,0.05479,0.03364,0.01041,0.04090,0.02447,0.69139,0.03625,-0.00752,0.71473,0.02669,0.03538,0.00067,0.00484,0.00176,0.49037,0.03062,0.02982,0.51692,0.53552,0.35182,0.33564,0.00304,0.71122,0.26844
0.28402,0.40841,0.04267,0.30048,0.04125,0.02449,0.01410,0.39864,0.01893,0.04744,0.05659,0.00835,0.01820,0.32288,0.03591,0.04415,0.30833,0.03190,0.05176,0.04211,0.02844,0.03636,0.39464,0.01201,0.04474,0.72960,0.31873,0.46345,0.75727,0.07497,0.34636,0.39013
0.50795,0.67196,0.01259,0.53935,0.06182,0.04336,0.04027,0.30239,-0.00550,0.05296,0.05987,0.01568,0.01345,0.48031,0.01734,0.04318,0.38453,0.02268,0.04081,0.05601,0.02728,0.02738,0.52698,0.02706,0.03364,0.36168,0.58623,0.57999,0.73073,0.05148,0.62759,0.43902
0.28164,0.28437,0.02462,0.73235,0.02671,0.06448,0.05922,0.44221,0.05599,0.01939,0.00672,-0.00355,0.02993,0.48286,0.01277,0.02171,0.27152,0.07917,0.03626,0.03979,0.03284,0.05881,0.55072,0.02517,0.05274,0.54683,0.70186,0.58387,0.27652,-0.00111,0.64904,0.38538
0.36931,0.55538,0.03318,0.41005,0.04760,0.00324,0.01967,0.70679,0.01609,0.02934,0.03656,0.02526,0.05709,0.54558,0.02774,0.03939,0.43193,0.03299,0.02089,0.00085,0.02041,-0.00659,0.38842,0.01767,0.03040,0.63982,0.56486,0.31574,0.68222,0.03463,0.40358,0.58037
0.58645,0.54065,0.01792,0.68840,0.03486,0.02256,0.01217,0.62042,0.00101,0.06919,-0.00512,0.04462,0.03830,0.72107,0.02201,0.05381,0.67931,0.04691,0.04733,0.05356,0.05009,0.07498,0.48627,0.03657,0.04603,0.45577,0.55762,0.49422,0.64880,0.01326,0.47899,0.54755
0.74465,0.45400,0.00830,0.29459,0.00505,0.07094,0.00560,0.31035,0.02698,0.06644,-0.00382,-0.00115,0.03237,0.56213,0.01107,0.02868,0.61532,0.03762,0.00584,0.03298,0.00495,0.03871,0.55733,0.04434,0.05070,0.42836,0.29498,0.62983,0.61175,0.06140,0.25949,0.49470
0.59436,0.46948,0.02369,0.39168,0.01676,0.03560,0.05245,0.73900,0.03687,0.00229,0.02240,0.05340,0.03564,0.71663,0.06624,-0.00449,0.70697,0.02940,0.03809,0.01399,0.03045,0.07191,0.40540,0.02936,0.04281,0.36849,0.26427,0.58448,0.59518,0.02105,0.26841,0.44122
0.58946,0.34218,0.03564,0.58427,0.03302,0.03715,0.06858,0.65248,0.00643,0.04895,0.05704,0.05090,0.01656,0.43442,0.04810,0.04720,0.52590,0.04119,0.04881,0.01430,0.01332,0.03963,0.36995,0.00531,0.01386,0.76715,0.71891,0.40876,0.65348,0.01202,0.54835,0.68994
0.51689,0.63342,0.04272,0.59082,-0.01151,0.03178,0.02426,0.50666,0.03025,0.05350,0.07074,0.01663,0.00529,0.46379,0.04680,0.07659,0.57372,0.00984,0.03852,-0.00420,0.02012,0.02574,0.24630,0.04207,0.04593,0.52272,0.74692,0.32021,0.73868,0.01025,0.47961,0.31440
0.61055,0.66630,0.03011,0.27048,0.04012,0.06413,0.02980,0.26522,0.00709,0.01066,0.01815,0.07232,0.02074,0.25469,0.02843,0.01014,0.44591,0.04129,0.04213,0.05238,0.03063,0.01998,0.60403,0.02842,0.02409,0.30897,0.74038,0.67120,0.31065,0.05342,0.29180,0.27951
0.27112,0.32007,0.03244,0.22323,0.04158,0.02901,0.01971,0.72646,-0.00869,0.03416,0.00932,0.02742,0.04433,0.24050,0.04067,0.03676,0.71777,0.02677,0.03623,0.01405,0.01585,0.01412,0.43698,0.04561,0.04087,0.41774,0.61335,0.53304,0.29230,0.05708,0.59185,0.34689
0.63629,0.49883,-0.01080,0.27589,0.05277,-0.00277,0.07345,0.67399,0.04023,0.01817,0.05829,0.02687,0.00945,0.23527,0.02287,0.04967,0.54212,0.06234,0.04812,0.02751,0.04652,0.00971,0.42003,0.03021,0.06861,0.52719,0.25805,0.67944,0.44723,0.00582,0.63091,0.62177
0.69814,0.73929,0.03564,0.28619,0.03030,0.02257,-0.00155,0.50404,0.00567,0.00690,0.02642,0.01414,0.02487,0.45524,-0.00945,0.06091,0.29684,0.01114,0.01836,0.06931,0.03782,-0.00361,0.72739,0.06325,0.03780,0.30344,0.54242,0.29069,0.30408,-0.00017,0.37130,0.47405
0.33798,0.60478,-0.01752,0.76563,0.00484,0.02858,0.05380,0.45597,0.04621,0.05096,0.02809,0.06543,0.02016,0.69840,0.02512,0.02666,0.71497,0.05474,0.00837,0.06278,-0.01939,0.00960,0.31033,0.01092,0.01634,0.71678,0.33087,0.51778,0.59040,0.00427,0.67094,0.76181
0.34398,0.74417,0.04193,0.58896,0.04784,0.03681,0.03058,0.27856,0.04854,0.04282,0.00577,0.03107,0.05945,0.40723,0.01723,-0.00006,0.68350,0.04603,0.06057,0.03648,0.04892,0.02973,0.47495,0.01374,0.06490,0.42453,0.37524,0.54502,0.47634,0.06879,0.28073,0.62484
0.71974,0.67123,0.02354,0.26779,0.01813,0.01166,-0.02207,0.39605,0.01188,0.01469,-0.00464,0.02508,-0.01327,0.50412,-0.00338,0.00692,0.49322,0.01149,0.02835,0.06287,-0.01615,0.05040,0.32792,0.00667,0.03932,0.66856,0.40977,0.52006,0.49912,0.05244,0.58777,0.33490
0.76690,0.31733,0.02984,0.72125,0.02536,0.02167,0.01719,0.39095,0.07747,-0.00236,0.02154,0.04536,0.00701,0.28771,0.04195,0.00439,0.65335,0.03330,0.03688,0.02389,0.04659,0.06944,0.69637,-0.02231,0.02832,0.44637,0.47893,0.48049,0.72150,0.00808,0.45566,0.35575
0.70240,0.39751,0.03920,0.28538,0.04419,0.02384,0.02490,0.58922,-0.01042,0.05390,0.01343,0.03041,0.02382,0.47094,-0.01505,0.03512,0.64132,0.04935,0.04846,0.06128,0.02511,0.03237,0.73181,0.03583,0.04945,0.29602,0.68995,0.29206,0.63928,0.03558,0.26953,0.62439
0.76531,0.57517,0.01005,0.36479,0.04397,0.01818,0.01998,0.34611,0.02218,0.01455,0.05801,0.01863,0.02034,0.38072,0.02318,0.03062,0.62845,0.01782,0.00280,0.02602,0.01062,0.00156,0.27169,0.04792,0.03344,0.70700,0.57799,0.41157,0.54758,0.00825,0.29415,0.38348
0.53730,0.29532,0.05520,0.24042,0.02023,0.05541,0.02190,0.49601,0.02161,0.02495,0.00930,0.02861,-0.00635,0.65377,0.04489,0.00442,0.51655,0.02699,0.00932,0.02633,0.02717,-0.00044,0.37294,0.00174,-0.01184,0.43529,0.71570,0.48713,0.57457,0.00625,0.60213,0.52054
0.50236,0.55734,0.02319,0.40354,0.05075,0.02111,0.02870,0.76610,0.00022,0.06588,0.00232,0.02196,0.03350,0.65407,0.02956,0.01599,0.62302,0.03090,0.02298,0.02779,0.01286,0.03633,0.53952,0.02148,0.00973,0.76497,0.39649,0.55764,0.32371,0.02554,0.36791,0.70982
0.53607,0.68982,0.03013,0.28809,0.05220,0.03011,0.02834,0.62881,0.04397,0.05329,0.01124,0.00473,0.05133,0.43124,0.03882,0.04290,0.30943,0.02993,0.06300,0.03262,0.02920,0.04342,0.34240,-0.00279,0.04457,0.48509,0.51551,0.41434,0.57168,0.08227,0.53874,0.41223
0.56521,0.70209,0.05230,0.31048,0.04832,0.06288,0.01712,0.51197,0.05364,0.06337,0.01301,-0.01443,0.05728,0.38686,0.03438,0.02659,0.70378,0.04686,-0.02004,0.05077,0.02080,0.03520,0.52836,0.00434,0.03290,0.76263,0.57637,0.30955,0.71127,0.06846,0.49720,0.58489
0.71021,0.71870,0.04980,0.56847,0.05783,0.03198,0.07463,0.39086,0.04386,0.02333,0.04148,0.00040,0.00444,0.27934,-0.01133,0.04307,0.39000,0.02361,0.04852,0.04495,0.00865,0.03966,0.51161,0.04467,0.01359,0.57993,0.27154,0.42691,0.46007,0.02896,0.45447,0.25019
0.36896,0.49147,0.02609,0.68487,0.03012,0.02964,0.04813,0.75814,0.02506,0.04325,0.05620,0.05461,-0.01474,0.33736,0.02574,-0.00384,0.62141,0.05576,0.02370,-0.00149,0.01060,-0.00947,0.32026,0.06180,0.03484,0.44858,0.73465,0.36895,0.56259,0.06223,0.57385,0.37420
0.38787,0.66781,0.01346,0.43906,0.04504,0.06810,0.02658,0.44887,0.06019,0.01608,0.02661,0.04338,0.02529,0.26011,0.00842,-0.03358,0.75883,0.05633,-0.00877,0.02532,0.03545,0.07540,0.69330,0.02289,0.04368,0.53796,0.68759,0.28873,0.56473,0.04186,0.49318,0.60110
0.57121,0.38075,0.04127,0.30151,0.03164,0.04172,0.03915,0.24183,0.03795,0.01894,0.01691,0.06062,0.04555,0.60523,0.04437,0.02438,0.30669,0.02747,0.02721,0.02055,0.01127,0.05045,0.63325,0.03439,-0.00045,0.56507,0.37864,0.47852,0.65341,0.01275,0.32303,0.32026
0.62496,0.25557,0.02940,0.56875,0.02718,0.07025,0.01887,0.36079,0.09952,0.04165,0.02287,-0.01462,0.03991,0.55308,0.01656,0.00228,0.27281,0.03074,-0.00049,0.03510,0.03419,0.04141,0.72265,0.04897,0.02643,0.34823,0.58903,0.65640,0.46027,0.05783,0.57655,0.35042
0.69639,0.64694,0.03400,0.36369,0.03569,-0.00145,0.02479,0.71103,0.01979,0.05555,0.03389,0.04684,0.04365,0.69977,0.03249,0.00144,0.40447,0.04611,0.01992,0.03196,0.02890,0.03941,0.31959,0.07643,0.03584,0.34903,0.30749,0.47134,0.67414,0.00180,0.44516,0.41137
0.48666,0.72417,0.01128,0.73353,0.02996,0.01070,0.04123,0.33147,0.01347,0.03401,0.04396,0.00876,0.02462,0.44703,0.02987,0.00077,0.35017,0.02764,0.02740,0.05980,0.05508,-0.01535,0.71029,0.00400,0.08130,0.50299,0.59938,0.39986,0.71682,0.03851,0.53414,0.44651
0.39078,0.59453,0.03229,0.35504,0.04259,0.02062,0.03962,0.62629,0.05012,0.01608,0.00901,0.02435,0.02384,0.68262,0.00122,0.01485,0.46542,0.03166,0.00447,0.04889,0.02963,0.03282,0.72729,0.04657,0.05397,0.44143,0.59816,0.48295,0.35897,0.02601,0.31153,0.39913
0.31158,0.39811,0.04763,0.53493,0.00538,0.05035,0.04867,0.63298,0.04240,0.00922,0.02614,0.00694,-0.00080,0.47304,0.04840,0.02568,0.65955,0.01381,0.01159,0.03546,-0.00814,0.05789,0.55368,0.03525,0.02963,0.62728,0.51168,0.44320,0.60860,0.01366,0.52490,0.55738
0.71228,0.26630,0.02540,0.38329,0.04030,0.03199,0.00282,0.31975,0.00035,0.02524,0.02667,0.09228,0.03012,0.58056,0.00694,0.01200,0.23280,0.00678,0.01530,0.02701,0.01853,0.01320,0.40279,0.03894,0.03266,0.59373,0.44906,0.71953,0.25589,0.02288,0.69714,0.33955
0.34636,0.73504,0.05415,0.72468,0.02470,0.01387,0.06011,0.38372,0.01875,0.01896,0.02940,0.06414,0.02077,0.52415,0.02525,0.00015,0.70403,0.02870,0.01559,0.01186,0.06634,0.03450,0.54868,0.05185,0.02890,0.49333,0.68722,0.77035,0.53261,0.02866,0.72070,0.49524
0.54917,0.70462,0.00524,0.34354,0.02385,0.05014,0.02877,0.32640,-0.00777,0.08168,0.03784,0.04591,0.05465,0.39524,0.04845,0.03097,0.59432,0.06187,0.00475,0.04818,0.00686,-0.02217,0.43744,0.06953,-0.01720,0.32976,0.55948,0.51644,0.44300,0.05459,0.25739,0.69404
0.46062,0.25756,0.03796,0.72346,0.06721,0.03666,-0.02363,0.72988,0.04316,0.01847,0.05281,0.04312,0.04822,0.70782,0.03633,-0.02964,0.54437,0.05152,0.04421,0.00563,0.01037,0.02503,0.40390,0.03531,0.05986,0.70721,0.44660,0.36687,0.61707,0.06328,0.28532,0.64878
0.66516,0.51486,0.02920,0.30914,0.02439,-0.01491,-0.00476,0.62439,0.03257,0.03174,0.02301,0.00902,-0.03700,0.45560,0.03956,0.03780,0.68503,0.01324,0.03716,0.01360,0.03781,0.01608,0.37085,0.01016,0.03418,0.47948,0.45188,0.69122,0.55956,0.07285,0.59597,0.43720
0.57844,0.34532,0.03284,0.73414,0.07552,0.00638,0.05237,0.44243,0.04140,0.00845,0.00738,0.01687,0.05866,0.52844,0.01183,0.05199,0.37186,0.02139,0.03441,0.00284,-0.00035,0.04553,0.42869,0.03380,0.02748,0.34396,0.69121,0.30961,0.66674,-0.02192,0.32361,0.33229
0.50365,0.53952,0.01681,0.34859,0.07666,0.01750,0.02924,0.48447,0.03125,0.01262,0.00699,0.03285,0.05183,0.62323,0.04366,0.04502,0.41339,0.02598,-0.00173,0.03436,0.01837,0.06709,0.41247,0.00283,0.00165,0.71136,0.38915,0.41901,0.71052,0.04620,0.46669,0.37174
0.58256,0.39386,-0.00073,0.31796,0.00746,0.00611,0.02101,0.55005,0.04325,0.02539,0.07305,0.05129,0.04110,0.62099,0.00973,0.04087,0.38751,0.01263,0.04016,0.04476,0.04967,0.03980,0.37850,0.03986,0.02880,0.66494,0.65578,0.44231,0.68194,0.01935,0.75588,0.61264
0.56832,0.51780,0.02765,0.59591,0.03777,0.00992,0.04296,0.53839,0.03452,0.05858,0.00421,0.02338,0.00868,0.64528,0.07789,0.03232,0.57561,0.09891,0.04114,0.05896,0.03496,-0.01550,0.61459,0.02427,0.03982,0.31751,0.49723,0.27414,0.54494,-0.00099,0.29357,0.54652
0.71661,0.45834,0.00684,0.58902,0.04715,0.01424,0.03638,0.48243,0.03920,0.00869,0.02498,0.01563,-0.02080,0.71731,-0.01365,0.02465,0.29329,0.03885,0.03808,0.02236,0.02770,0.03768,0.66780,0.04808,-0.01155,0.62000,0.33767,0.33100,0.26971,0.01892,0.68344,0.64049
0.50948,0.52864,-0.01968,0.46188,0.03278,0.02727,0.00669,0.46800,0.02400,0.04606,0.01775,0.04714,0.02951,0.44454,0.01042,-0.00262,0.57759,0.01864,0.03995,0.00492,0.03276,0.02986,0.40015,0.04073,0.02461,0.50455,0.31313,0.71870,0.25387,0.05740,0.63322,0.36573
0.48275,0.46664,0.04921,0.44545,0.01311,0.02915,0.00900,0.28318,0.02488,0.00813,0.03319,0.03018,0.03398,0.57240,0.02237,0.04238,0.35392,0.04301,0.06360,-0.00045,0.01404,0.01011,0.40408,0.03514,0.04596,0.26465,0.61543,0.63887,0.39044,0.01320,0.57391,0.57749
0.45107,0.66256,0.03604,0.71736,0.06720,0.04473,0.05362,0.59982,0.03868,0.03910,0.01224,0.03948,0.04534,0.49427,-0.02901,0.01343,0.77738,0.00694,0.04535,0.05167,0.02224,0.00313,0.30034,0.04282,0.03494,0.33800,0.41539,0.45615,0.47323,0.04094,0.64211,0.48683
0.60796,0.38135,0.04008,0.51228,0.07010,0.06413,0.00553,0.73643,0.01270,0.06266,0.03479,-0.00116,0.02256,0.41492,0.02429,0.05835,0.56278,0.03295,0.03757,0.02821,0.00219,0.00667,0.31348,0.06066,-0.00273,0.45134,0.26983,0.36955,0.35944,0.03106,0.71161,0.22401
0.64495,0.43494,0.02413,0.63255,0.04133,0.03657,0.02015,0.35586,0.02910,0.02253,0.06798,0.01085,0.04679,0.38824,0.03755,0.01542,0.51088,0.03208,0.01819,0.04024,0.03567,0.00881,0.33214,0.05161,0.00347,0.70247,0.61688,0.34961,0.38530,0.04542,0.69294,0.69816
0.39405,0.31082,0.02879,0.75377,0.01809,0.03995,0.03755,0.37344,0.00119,0.05073,0.04124,0.01752,0.02481,0.76863,0.00954,0.02114,0.69046,0.00971,-0.01362,0.06236,0.03828,0.02910,0.38484,0.03891,0.03071,0.67545,0.58918,0.25201,0.44219,0.05600,0.42251,0.67618
0.33079,0.70175,0.02563,0.31501,0.05512,0.00393,0.05043,0.39290,0.00275,0.04852,0.00526,0.05090,0.01696,0.45339,-0.00721,0.05225,0.33698,0.01644,0.06514,-0.00250,0.04970,0.04326,0.43292,0.00120,0.03507,0.27731,0.43003,0.69093,0.66597,0.02749,0.61000,0.52732
0.54792,0.71805,0.01406,0.74981,-0.01068,0.02076,0.04825,0.26696,0.03062,0.03315,0.05830,0.02899,-0.00438,0.70853,0.05239,0.04959,0.44103,0.01862,0.01086,0.01020,0.05683,0.01709,0.50506,0.01966,-0.01225,0.71101,0.32928,0.30428,0.45450,-0.02170,0.25996,0.61652
0.56560,0.48177,0.03410,0.53058,0.01688,0.05373,-0.01128,0.66939,0.05348,0.01779,0.00752,0.01520,0.05420,0.57018,0.04523,0.01885,0.46322,0.04024,0.03913,0.01617,0.04563,0.03960,0.34621,0.05024,0.02591,0.63802,0.57296,0.30015,0.28447,0.03841,0.36200,0.33630
0.62091,0.67805,0.02121,0.73229,0.05079,0.05458,0.02841,0.28222,0.03674,0.02476,-0.00819,0.04103,0.03785,0.41002,0.00515,-0.00666,0.28923,0.03839,0.02065,0.06876,-0.00065,0.07296,0.41703,0.04453,0.02457,0.73737,0.34309,0.55587,0.61955,0.02810,0.40249,0.54618
0.71893,0.48808,0.01555,0.49109,0.03371,0.03967,0.07053,0.48009,0.04015,0.03269,-0.01860,0.04348,0.06622,0.59483,0.02172,-0.02148,0.71482,0.06359,0.02108,0.01399,0.03198,0.04178,0.46743,0.08654,0.04827,0.66031,0.64221,0.27339,0.44081,0.03344,0.55542,0.65116
0.35623,0.74071,-0.02366,0.29651,0.03886,0.03377,0.02786,0.37067,0.04472,0.02617,0.04337,0.02731,0.00870,0.40955,-0.01089,0.02800,0.72899,0.01010,0.06665,0.04306,0.04947,0.03202,0.69433,0.05278,0.03364,0.63103,0.39421,0.39566,0.43311,0.04381,0.32803,0.61025
0.70496,0.27964,0.03106,0.26995,0.05618,0.01698,0.02788,0.39920,0.02696,0.04750,0.01408,0.04591,0.05355,0.37416,0.04401,0.02502,0.68517,0.03994,0.05286,0.01764,0.01434,0.01319,0.56650,0.02680,0.02145,0.49164,0.53126,0.60771,0.24487,0.00979,0.28032,0.58556
0.71855,0.65118,0.02066,0.75698,0.05385,0.01032,0.06197,0.50733,0.03559,0.00597,0.04751,0.02160,0.05189,0.35345,0.02399,0.01962,0.42933,0.02477,0.02088,0.04486,0.04339,0.02355,0.71512,0.02914,0.01856,0.46342,0.37249,0.67704,0.36861,0.03045,0.41871,0.64685
0.68087,0.40575,-0.00486,0.55232,-0.00162,0.02802,0.02943,0.30314,0.05347,0.01248,0.04126,0.03192,0.02025,0.42289,0.03047,0.03674,0.64838,0.03550,0.00066,0.04992,0.04283,0.05167,0.49506,0.00855,0.03706,0.40026,0.73832,0.63649,0.25584,0.03813,0.69688,0.52326
0.27855,0.40527,0.00930,0.26080,0.04765,0.02731,0.06752,0.51532,0.04336,0.00502,0.06000,0.02136,0.04083,0.55502,0.03411,0.04950,0.73212,0.02497,0.01357,0.05002,0.01360,0.01053,0.39033,0.04070,0.01936,0.74208,0.67821,0.65930,0.35596,0.04528,0.69930,0.62850
0.49827,0.68075,0.02064,0.50399,0.02580,0.02118,0.06990,0.46578,0.01849,0.02330,0.00163,0.05378,0.00500,0.53919,0.04119,0.02544,0.40025,0.00668,0.00263,0.02943,0.04047,0.07150,0.46796,0.00422,0.02352,0.38198,0.40201,0.44015,0.29122,-0.01702,0.41248,0.59366
0.51310,0.39177,0.01942,0.23357,0.04417,0.04820,0.08793,0.63103,0.00432,0.03292,0.00753,0.04507,0.04999,0.39635,0.05311,-0.01778,0.26934,0.00807,0.08075,0.05163,0.02862,0.02731,0.73741,0.01466,0.02938,0.35037,0.51535,0.67252,0.39948,0.04180,0.78482,0.49539
0.57050,0.67545,0.06329,0.36409,0.03655,0.01866,0.02443,0.75136,0.01627,0.06736,-0.00022,0.05181,0.07373,0.52492,0.01167,0.06275,0.68109,0.02915,0.08282,0.03378,0.00177,0.05566,0.56261,0.03003,0.04641,0.52228,0.63636,0.48206,0.66467,0.01837,0.39230,0.55130
0.61658,0.43698,0.04470,0.42876,0.01432,0.01157,0.06888,0.44618,0.03400,0.04552,0.00008,0.03905,0.03479,0.73563,0.04700,-0.00921,0.67013,0.03945,0.04159,0.02357,0.05663,0.02513,0.25824,0.02555,0.01216,0.41446,0.53505,0.42127,0.74070,0.00854,0.28477,0.55148
0.67129,0.47826,0.04085,0.59316,0.03245,0.02159,0.04780,0.41984,0.01646,0.02937,0.02399,0.02595,0.06503,0.72027,0.00944,0.02812,0.40912,0.03079,0.02683,0.04652,0.01789,0.02000,0.64682,0.04506,0.04479,0.73846,0.25489,0.38623,0.53992,0.06743,0.55434,0.38896
0.70838,0.69401,0.04751,0.38986,0.06161,0.06963,-0.00817,0.65988,-0.00956,0.00905,0.02906,0.02462,0.06620,0.38878,0.02631,0.01743,0.58937,0.01029,0.01892,0.00981,0.04454,-0.00664,0.72906,0.01216,-0.00047,0.68196,0.49176,0.43449,0.39291,0.02578,0.52648,0.52637
0.43934,0.47929,0.03026,0.55934,-0.00142,-0.00530,0.05857,0.59301,-0.01659,0.04265,0.07821,0.03107,0.03656,0.57323,0.00804,0.05263,0.59532,-0.00299,0.01112,0.04360,0.09972,-0.00902,0.39081,0.05526,0.08192,0.61217,0.56592,0.41755,0.36874,0.00878,0.67331,0.34912
0.42881,0.70796,0.02265,0.40248,0.01408,0.02348,0.03680,0.65186,0.03728,0.04185,0.06780,0.04348,0.03377,0.70338,-0.00174,0.03276,0.46052,0.02840,0.05399,0.03637,0.06156,0.00967,0.45119,0.05112,0.00523,0.33487,0.47519,0.50494,0.57722,-0.01170,0.39054,0.72451
0.54412,0.43300,0.04477,0.49646,-0.00166,0.02482,0.02784,0.71215,0.00814,0.06957,0.03221,0.02646,0.04552,0.49768,0.00903,0.00879,0.59212,0.02243,0.02887,0.04610,0.02345,0.00360,0.71526,0.02347,0.01839,0.32000,0.42317,0.54670,0.30131,0.03063,0.45905,0.76049
0.46126,0.68198,0.04587,0.28432,0.03978,0.06859,0.07876,0.71493,0.01714,0.04208,0.04719,0.06435,0.02705,0.48600,0.02274,-0.01357,0.30979,0.02911,0.02060,0.06204,0.01808,0.07372,0.67639,0.04049,0.01223,0.43377,0.44586,0.34327,0.45395,0.03331,0.56558,0.53795
0.62627,0.64832,-0.00360,0.62019,0.00413,0.03456,0.02896,0.48964,0.00460,0.03985,0.02165,0.01117,0.05068,0.52317,0.05987,0.01528,0.63877,0.03190,0.03862,0.01680,0.03494,0.00455,0.25466,0.00214,-0.02182,0.35617,0.42319,0.55849,0.35792,0.03632,0.45912,0.24826
0.29936,0.46303,0.04871,0.35697,0.04635,0.02584,0.00980,0.30239,0.01229,0.07708,0.09290,0.03822,0.09043,0.35576,0.03291,0.01420,0.29430,-0.01629,0.03842,0.03160,0.06728,0.01618,0.71110,0.01341,0.03267,0.44753,0.37750,0.43171,0.31249,0.01242,0.36804,0.69413
0.69693,0.62446,0.02723,0.37063,0.01150,0.03075,0.04417,0.69614,0.05170,0.02105,-0.00942,0.05832,0.02920,0.67353,0.02864,0.02748,0.33623,0.02564,0.00211,0.05092,0.04653,0.00135,0.67239,0.00123,0.01521,0.65329,0.68907,0.62683,0.32387,0.05691,0.34714,0.27819
0.25272,0.41533,0.05412,0.49914,0.04192,0.00204,0.01248,0.74487,0.05829,0.06365,-0.00984,0.03556,0.01916,0.24548,0.04380,0.06418,0.75489,0.00867,0.03945,0.01906,0.01237,-0.01075,0.32669,0.04310,0.06042,0.28585,0.52893,0.42181,0.47945,0.02484,0.61803,0.61220
0.42246,0.30710,0.02227,0.26978,0.00749,0.02728,0.03881,0.47296,0.02913,0.06800,0.00323,0.03733,0.03598,0.47374,0.02629,0.03266,0.52952,0.04493,0.04666,0.01137,0.01395,0.02958,0.49630,0.06051,0.03655,0.72763,0.61334,0.29073,0.55954,0.00172,0.56792,0.64723
0.73603,0.58345,0.02115,0.24469,0.02431,0.03372,-0.00718,0.29830,-0.00668,0.05303,0.02514,0.02573,0.06697,0.68021,0.02542,0.06011,0.60765,0.05261,0.03345,0.02342,0.04224,0.02487,0.28060,0.06966,0.06221,0.54311,0.35208,0.63903,0.76404,0.01283,0.51312,0.64287
0.69425,0.47684,0.04172,0.53055,0.02865,0.02109,-0.00402,0.52358,0.05931,0.03335,-0.00656,0.01835,0.05207,0.41840,0.00755,0.04943,0.64743,-0.00374,0.04070,0.01401,0.03406,0.05524,0.28388,0.01641,0.02200,0.49772,0.55333,0.46847,0.43604,0.04330,0.30521,0.68162
0.27636,0.38185,0.02559,0.53414,0.02608,0.02094,0.00294,0.64047,0.02037,0.02719,0.05419,0.02012,0.03823,0.33296,0.04703,0.04202,0.60452,0.03431,0.04642,0.03284,0.03565,0.00930,0.62837,0.00732,0.04695,0.54520,0.26229,0.33827,0.43358,-0.00165,0.60525,0.32797
0.59799,0.52595,-0.00959,0.34892,0.04323,0.05613,0.02848,0.46096,0.03523,0.02636,0.05569,0.04920,0.04855,0.53250,0.00084,0.00926,0.39980,0.05965,0.02258,0.01633,0.01620,0.09263,0.41419,0.01104,-0.00096,0.29974,0.38612,0.68087,0.27995,0.03752,0.46285,0.68386
0.32598,0.66292,0.02645,0.58947,0.01173,0.02127,0.00043,0.30653,0.05017,0.02361,0.07991,0.00493,0.04689,0.33228,0.02558,0.05170,0.56584,0.02614,0.04838,0.02672,0.04872,-0.03458,0.36068,-0.00454,0.05823,0.39623,0.48473,0.28320,0.58874,0.03760,0.60094,0.68013
0.64960,0.75652,0.01576,0.45577,0.04089,0.04042,0.05631,0.68518,0.03614,0.00366,0.04316,0.04567,0.02199,0.52287,0.00705,0.03728,0.27353,0.02222,0.02948,0.02255,0.01962,0.03071,0.68672,0.03202,0.03885,0.65806,0.74250,0.33134,0.46532,0.01867,0.47800,0.26919
0.35984,0.62215,-0.00082,0.41391,-0.00187,-0.00269,0.03627,0.50372,0.03920,0.01916,0.03138,0.02858,0.03853,0.70138,0.01432,0.04222,0.43898,0.03703,0.00339,0.02058,0.04993,0.08626,0.57605,0.03647,0.04795,0.34492,0.31724,0.36125,0.62974,0.06137,0.48420,0.26045
0.67380,0.44635,0.04348,0.45661,0.01966,0.03997,0.00942,0.38872,0.04297,0.00711,0.00353,0.02065,0.02727,0.47865,0.01463,0.00097,0.48392,0.04076,-0.00324,0.04047,0.00127,0.03524,0.37721,0.04119,0.02676,0.42739,0.66970,0.47158,0.57625,-0.01861,0.41916,0.53865
0.52094,0.73451,0.04922,0.43233,0.02817,0.02567,0.04944,0.47361,-0.00541,0.05642,0.02044,0.06614,0.06767,0.46592,0.00521,-0.01084,0.73528,0.01068,0.01352,0.02513,0.05658,0.01725,0.59606,0.07325,0.02903,0.57307,0.48272,0.59155,0.69459,0.03293,0.32382,0.63607
0.45457,0.46971,0.02501,0.68550,0.04439,0.02692,0.01053,0.71079,0.05206,0.09445,0.04146,0.04947,0.01559,0.69280,0.04130,0.02097,0.32301,0.04063,0.02085,0.03016,0.04540,0.03104,0.67117,0.01553,0.05188,0.39453,0.72196,0.29922,0.39942,0.08982,0.62534,0.35410
0.68978,0.41332,0.03464,0.72507,0.04044,0.01781,0.03096,0.62277,0.01392,0.01112,0.04838,0.02284,0.01905,0.66226,0.01422,0.03850,0.44250,0.04703,0.03935,0.01102,0.02124,0.02742,0.69469,0.00935,0.01669,0.33085,0.49066,0.43246,0.39696,0.04401,0.52480,0.63186
0.74218,0.49850,0.00671,0.54778,0.00695,0.06055,0.01742,0.75534,0.03389,0.04569,0.03762,0.02869,0.06293,0.46297,0.06391,0.04679,0.55052,0.04552,0.02864,0.01163,-0.05120,0.04847,0.30403,0.01690,-0.00520,0.31501,0.59354,0.64139,0.72334,0.02847,0.74236,0.68008
0.43700,0.57720,0.05213,0.35056,0.03491,0.04857,0.04842,0.41657,0.04218,0.02462,-0.00022,0.03493,0.04730,0.53997,0.01266,0.03661,0.55559,0.02094,0.01206,0.02672,0.02140,0.07907,0.52646,0.04935,0.05311,0.32544,0.65410,0.45591,0.73049,0.04894,0.35256,0.64104
0.71586,0.42863,0.03327,0.33564,0.00361,0.00164,0.01165,0.38615,0.06128,0.05217,0.02028,0.03866,0.05030,0.30249,0.02111,0.05758,0.70687,0.01084,0.04321,0.01931,0.00779,0.05588,0.69020,0.02064,0.04893,0.64286,0.43156,0.52107,0.59214,0.01951,0.68276,0.64711
0.65633,0.62783,0.03201,0.69839,0.01764,0.06661,0.00698,0.45500,0.05337,0.04675,0.03075,0.05320,0.02493,0.74572,0.06566,0.02063,0.55415,-0.00698,0.06645,0.02248,0.00875,-0.00464,0.70129,0.00709,0.06233,0.70866,0.36510,0.66825,0.73967,0.04173,0.72258,0.39076
0.64951,0.72106,0.04471,0.56285,0.07018,0.01039,0.02296,0.29166,0.02958,0.04070,0.01559,0.03927,0.05518,0.47070,0.03917,0.05142,0.40208,0.00992,0.05786,0.04119,0.05519,0.05349,0.46018,0.02654,0.05911,0.64004,0.70569,0.73227,0.36150,0.01837,0.68041,0.27402
0.46742,0.66107,0.03323,0.69617,0.02228,0.02381,0.03100,0.55618,0.03435,0.00678,0.03310,0.05523,0.02511,0.44573,-0.02494,-0.00366,0.28406,0.00804,0.00085,0.01594,0.03507,-0.00262,0.56068,0.03787,0.00659,0.49316,0.38182,0.46974,0.49183,0.06405,0.47296,0.74302
0.40074,0.50039,0.04065,0.64807,0.02664,0.05267,0.04503,0.46294,0.01551,0.01866,0.02244,-0.02861,0.04163,0.38984,0.03010,0.06547,0.65896,0.00208,0.01569,0.05811,0.02519,0.00519,0.69086,0.05249,0.02463,0.70558,0.30669,0.62453,0.43679,0.02117,0.49036,0.40898
0.56638,0.65950,0.04452,0.57769,0.01646,0.01868,0.03550,0.73317,0.02591,-0.00735,0.04543,0.01783,0.04551,0.67473,0.03704,0.04956,0.46178,0.02045,0.04482,0.04229,0.03226,0.01722,0.26290,-0.00762,0.02267,0.56152,0.48345,0.57520,0.63286,0.08049,0.28568,0.64685
0.69788,0.53933,0.03247,0.52526,0.01866,0.04689,0.00079,0.66135,0.05093,0.05021,0.05578,0.04179,0.01981,0.34479,0.03953,0.02659,0.26945,0.05048,0.04068,0.06178,0.03455,0.05335,0.66434,0.02834,0.00774,0.43812,0.43031,0.71548,0.27697,0.00225,0.44577,0.71581
0.51884,0.55784,-0.01924,0.66778,0.03350,0.02165,0.04266,0.56033,0.01288,0.03084,0.04445,0.02289,0.04242,0.38200,0.03998,-0.01532,0.69906,0.02978,0.03191,0.01114,0.01828,0.01328,0.56062,-0.00893,0.02831,0.40240,0.48969,0.26296,0.27385,0.04385,0.46073,0.53519
0.75530,0.25927,0.02100,0.73079,0.05130,0.02299,0.03140,0.71230,0.01909,0.05261,0.02407,0.01732,-0.00272,0.52846,0.05093,0.05118,0.39149,0.03158,0.04823,0.02517,0.04344,0.06227,0.63581,0.05265,-0.00084,0.41643,0.64742,0.42407,0.45243,0.02696,0.69286,0.46953
0.37148,0.60057,0.02523,0.28741,-0.00371,-0.02665,0.00456,0.33593,0.03003,0.03117,0.05040,0.06384,0.03322,0.77092,0.02191,0.04223,0.60319,0.00763,0.02880,0.02925,0.05714,0.03271,0.43376,0.03909,0.01990,0.52618,0.54035,0.55551,0.74759,0.00897,0.44920,0.69366
0.27365,0.35296,0.04247,0.63561,0.05591,0.04976,0.02700,0.42001,0.00438,0.04284,0.04021,0.00531,-0.00473,0.66064,0.05137,0.00612,0.72716,0.03613,0.02592,0.07879,-0.01823,0.03001,0.60727,0.02861,0.07349,0.68161,0.45999,0.61298,0.59764,0.05409,0.42225,0.23762
0.27491,0.27733,-0.00074,0.41496,0.05193,0.00729,0.03815,0.41317,0.05324,0.04284,-0.00383,0.05329,0.00246,0.24635,0.03016,0.04758,0.63440,0.02778,0.03088,0.05983,0.01630,0.02841,0.74484,0.06951,0.05349,0.37490,0.30129,0.54994,0.28081,-0.01923,0.49721,0.28633
0.60116,0.55893,-0.00364,0.36786,0.04637,0.03429,0.04134,0.35688,0.02428,0.03942,0.02502,0.02933,0.03621,0.62058,0.03296,0.04409,0.45955,0.08132,0.04535,0.03418,0.06136,0.04642,0.55000,0.03088,0.02051,0.72644,0.71753,0.37296,0.29049,0.05751,0.25506,0.31780
0.43295,0.41181,0.02117,0.41868,0.04677,0.00867,0.07402,0.42669,0.02922,-0.02185,0.03295,0.02462,0.04145,0.35469,0.00196,0.04606,0.50757,0.00307,0.05312,-0.01138,0.08573,0.07147,0.33956,0.01358,0.03737,0.45446,0.34715,0.53015,0.75543,0.03350,0.39083,0.56044
0.64330,0.30547,0.05790,0.72370,0.04868,0.02420,0.02978,0.45214,0.02330,0.07175,0.03609,0.03232,0.05983,0.27529,0.00751,0.03464,0.75724,0.05058,0.04080,0.01090,0.00446,0.03940,0.48438,0.03913,0.04410,0.52491,0.71973,0.51757,0.36683,0.02333,0.64926,0.31674
0.26874,0.43680,0.03633,0.57187,0.01968,-0.00126,0.04639,0.40420,-0.00356,0.03987,0.04975,0.02169,0.00755,0.46428,0.04275,0.07495,0.56302,0.03989,0.04931,0.02900,0.05564,0.01501,0.66548,-0.02333,-0.01682,0.51567,0.36222,0.32843,0.65702,0.00143,0.54685,0.66254
0.42543,0.53504,0.01618,0.54076,0.03146,0.01840,0.00609,0.40800,0.04196,0.01129,0.03327,0.08298,-0.00062,0.32930,0.06539,0.06531,0.51687,0.02808,0.04481,-0.00045,0.04638,0.02360,0.25066,0.00405,0.02805,0.61815,0.54892,0.32572,0.63104,0.03463,0.28181,0.30262
0.43471,0.36356,0.02602,0.43267,-0.00967,-0.01383,-0.01145,0.48320,0.02819,0.04511,0.03342,0.01056,0.01519,0.31872,0.02513,0.02219,0.40653,0.01856,0.00362,-0.00804,0.05486,0.04308,0.63648,0.01605,0.03408,0.47802,0.51623,0.52967,0.48043,0.03801,0.52432,0.67457
0.54407,0.24247,0.04118,0.63824,0.02640,0.00869,0.01794,0.75540,0.03716,0.04357,0.04771,-0.01204,0.07567,0.52693,0.05315,0.04172,0.54444,0.01509,0.01451,0.09361,0.02397,0.05053,0.75325,0.03045,0.01399,0.35452,0.59348,0.57653,0.69107,0.04142,0.38792,0.59818
0.65945,0.27920,0.05967,0.73080,0.01410,0.03609,0.02563,0.70091,0.00848,0.01491,0.01930,0.03826,0.03872,0.70285,-0.01081,0.01852,0.37375,0.01466,0.02096,0.02283,0.07723,0.03162,0.61756,0.02703,0.00111,0.62647,0.34132,0.63591,0.35500,0.06658,0.70625,0.61742
0.51144,0.69223,0.04683,0.54552,0.02210,0.04150,0.01857,0.39325,0.01848,0.03112,-0.00733,0.01660,0.04583,0.49962,0.01451,0.03684,0.44671,0.02747,0.01137,0.02545,0.01541,0.02709,0.26803,0.03979,-0.02666,0.31418,0.44730,0.39442,0.60971,0.00496,0.74308,0.58528
0.62307,0.31307,0.05694,0.61640,0.05664,0.02513,0.05565,0.45319,0.04301,0.03315,0.02015,0.02330,0.05792,0.26470,0.03233,0.02099,0.39763,0.05074,0.05214,0.01383,0.04625,0.01859,0.75491,0.04103,0.02279,0.26859,0.33299,0.26064,0.42210,0.02864,0.49337,0.41792
0.71634,0.63571,0.03266,0.68456,0.02727,0.05202,0.00446,0.59004,0.01554,0.02957,0.06582,0.02556,0.01266,0.73980,-0.02343,-0.02505,0.31506,0.02740,0.03325,0.01877,0.00180,0.03572,0.53647,0.02472,0.03286,0.61069,0.36290,0.37553,0.67831,0.01448,0.35597,0.49652
0.69332,0.61473,0.02677,0.45389,0.02043,0.02483,-0.01705,0.50202,0.03594,0.02671,0.03543,0.04555,0.01999,0.69826,0.00905,0.03532,0.51338,0.02816,0.03480,0.02449,0.01132,0.04756,0.72123,0.03699,0.04233,0.45868,0.63836,0.61814,0.48355,0.01209,0.44287,0.45070
0.66075,0.45154,0.03044,0.28394,0.02383,-0.00298,0.05862,0.41342,0.03593,0.06150,0.02268,0.00317,0.03817,0.63822,0.01036,-0.01473,0.46826,0.05033,0.02731,0.01566,0.03984,0.03634,0.39327,0.02522,0.05120,0.46729,0.73315,0.52872,0.70094,0.06083,0.66497,0.37911
0.73268,0.65064,0.03362,0.65138,-0.00370,0.00365,-0.00442,0.65330,0.03592,0.03163,0.02009,0.07677,0.05531,0.31809,0.03544,0.04390,0.47484,0.04169,0.02771,0.00628,0.03994,0.05627,0.46483,0.01283,0.06470,0.26090,0.53732,0.73697,0.49741,0.02054,0.37359,0.42751
0.53070,0.31974,0.02324,0.53329,-0.03297,0.02435,0.01848,0.45917,0.07565,0.04224,0.59386,0.04174,0.01020,0.62556,0.01882,0.05036,0.42657,0.06128,0.04409,0.03554,0.01914,0.01170,0.43206,0.04816,0.04116,0.47605,0.29561,0.34925,0.48301,0.00992,0.67519,0.50688
0.52205,0.42920,-0.00837,0.34406,-0.00119,-0.01496,0.06758,0.71055,0.03400,0.00516,0.70486,0.06940,0.00025,0.62722,0.04923,0.01052,0.37000,0.04664,0.03346,0.06644,0.05981,0.05558,0.47574,0.02949,0.03540,0.28792,0.39394,0.73750,0.37314,0.05081,0.31893,0.34934
0.68014,0.56861,0.00908,0.68061,0.02427,0.03547,0.03482,0.44443,0.00223,0.01281,0.50379,0.04427,0.05460,0.44055,0.05507,0.04505,0.70235,0.02217,0.04867,0.04413,0.03319,0.01837,0.73356,0.03322,0.04473,0.50511,0.66640,0.30760,0.39016,0.02302,0.31358,0.69899
0.71614,0.59845,0.01028,0.36067,0.05780,0.05253,0.02994,0.46659,0.04651,0.05541,0.61357,0.02767,0.01497,0.62442,0.02962,0.01474,0.46568,0.04735,0.04394,0.00843,-0.00362,0.01021,0.68178,0.03741,0.03484,0.75752,0.47670,0.66008,0.63887,0.02604,0.29422,0.71469
0.38335,0.63883,0.02553,0.44722,0.05751,0.04576,0.05598,0.29024,0.02435,-0.00535,0.38283,0.00894,0.01838,0.27985,0.03746,0.01461,0.34269,0.04533,0.01557,0.03891,0.03147,0.03316,0.60003,0.01373,0.00515,0.69943,0.64171,0.72414,0.71405,0.03591,0.42289,0.27331
0.60688,0.32925,-0.00894,0.29239,0.02750,-0.00507,0.08189,0.63222,0.03417,0.04879,0.44489,0.01005,0.04645,0.55502,0.04734,0.03697,0.71687,0.02781,0.05906,0.01420,0.02949,0.00617,0.62023,0.01533,0.01778,0.54426,0.44758,0.70058,0.58136,0.06645,0.63222,0.39166
0.44514,0.41224,0.06405,0.44693,0.05156,0.00342,0.01177,0.55746,0.03151,0.05861,0.59216,0.04970,0.05389,0.40025,0.00731,0.01488,0.38868,0.01967,0.00890,0.03074,0.01700,0.00469,0.51635,0.02172,0.02131,0.35078,0.47195,0.72045,0.25744,0.04480,0.26191,0.66083
0.43776,0.26949,0.01105,0.32823,-0.01480,0.08070,0.05516,0.71636,0.03956,0.03724,0.29943,0.00716,0.01413,0.66697,0.05945,0.05513,0.60022,0.08005,0.00834,0.05930,0.00410,0.04134,0.40826,0.01039,-0.00743,0.30474,0.46273,0.45829,0.51012,0.01341,0.31996,0.55840
0.50063,0.74983,0.04000,0.30022,0.00565,0.04543,0.02494,0.57268,0.01096,0.06173,0.65719,0.06891,-0.00274,0.37262,0.02304,0.03915,0.66135,0.00086,0.03146,-0.01673,0.04169,0.00766,0.28891,0.02191,0.02664,0.67412,0.34613,0.21328,0.34847,0.01858,0.48261,0.58805
0.65462,0.45381,0.02577,0.68476,0.03263,0.01961,0.03061,0.65037,0.00935,0.03167,0.26528,0.03682,-0.00831,0.63912,0.08647,0.03389,0.46137,0.02919,0.01997,0.05139,0.01124,0.06308,0.50079,0.02410,0.04745,0.71589,0.75633,0.71696,0.74375,0.01172,0.43786,0.65454
0.49549,0.26296,0.00251,0.40240,0.04928,0.02114,0.04910,0.43677,0.04015,0.06523,0.41247,0.04615,0.00458,0.59567,0.04613,0.06323,0.44828,0.03368,0.02716,0.01344,0.01287,0.07343,0.42214,0.02251,0.05986,0.64714,0.59094,0.55483,0.36604,0.05823,0.48178,0.31052
0.27726,0.71639,0.00957,0.32878,0.03963,0.01010,0.02700,0.71209,0.05477,0.03844,0.49113,0.05509,0.03728,0.22480,0.02475,0.01344,0.50989,0.05279,0.02119,0.03821,0.02347,0.03085,0.64300,0.01157,0.03999,0.51301,0.32941,0.37305,0.24065,0.03189,0.58576,0.63358
0.54276,0.57402,0.02181,0.35234,0.05303,0.02730,0.02326,0.71782,0.03000,0.02079,0.31978,0.00423,0.01394,0.38710,-0.01945,0.03681,0.69212,0.02416,0.02537,0.06349,0.04813,0.02915,0.26796,0.03858,0.05137,0.43378,0.59879,0.41866,0.53745,0.05572,0.41038,0.45700
0.38991,0.36715,0.05119,0.28823,0.03284,0.04207,0.05057,0.69277,0.01447,0.08592,0.51570,0.02297,0.02604,0.47151,0.03632,0.03166,0.30447,-0.01309,0.00770,0.00191,0.03078,0.01271,0.54467,0.02587,0.01927,0.66108,0.60215,0.33473,0.46181,0.02525,0.58674,0.66654
0.22678,0.37459,0.04251,0.69790,0.02766,0.07733,0.02794,0.52644,-0.01435,0.05476,0.61668,0.04554,0.03648,0.43187,0.02341,0.02438,0.52563,0.03498,0.03360,0.06325,0.01506,0.05386,0.28506,0.01134,0.05394,0.34756,0.49975,0.50619,0.50670,0.06756,0.38799,0.21563
0.31016,0.69747,0.02414,0.30529,-0.01090,0.03654,0.01617,0.75732,-0.00559,0.01621,0.66470,0.02762,0.05215,0.57933,0.06730,0.01508,0.41781,0.01788,0.01633,0.05441,0.00626,0.01582,0.40679,0.01505,0.04010,0.44631,0.48984,0.35573,0.51138,0.04135,0.47544,0.26438
0.52007,0.56857,0.05422,0.54682,0.01243,0.01111,0.07242,0.68958,0.00064,0.04503,0.34998,0.04427,0.01760,0.35955,0.04777,0.01327,0.74807,0.01400,0.02689,0.02061,0.02131,0.07065,0.35493,0.07078,0.02333,0.70189,0.49827,0.28172,0.59074,0.01873,0.49497,0.73278
0.60053,0.59203,0.02144,0.73523,0.04453,-0.01293,0.00969,0.64436,0.05508,0.03476,0.30932,0.00036,0.02835,0.61952,0.03770,0.04245,0.41735,0.03939,0.04824,0.06204,0.05024,0.01553,0.50117,0.04324,-0.01366,0.76088,0.70430,0.31248,0.54557,0.04589,0.61698,0.46584
0.35628,0.59438,0.04801,0.27933,0.03729,0.04137,0.04759,0.34184,0.01510,0.04502,0.32074,0.02515,0.02590,0.39765,0.01860,0.04883,0.29487,0.01387,0.03204,0.02877,0.03154,0.01573,0.26826,0.04719,0.02529,0.57726,0.40010,0.72343,0.37729,0.02312,0.58719,0.63547
0.35792,0.55709,0.03084,0.30678,0.04479,0.04524,0.03083,0.51662,-0.02228,0.01350,0.38349,0.01248,-0.01449,0.49364,-0.02179,0.03149,0.43147,0.02221,0.03565,0.03870,0.00010,0.00974,0.29810,0.06254,0.02264,0.76188,0.37221,0.51227,0.53665,0.00641,0.61119,0.46697
0.46838,0.54193,0.01448,0.56709,0.03793,0.04220,0.03761,0.23536,0.01907,0.01842,0.42765,-0.00507,0.06682,0.71398,0.02481,0.02691,0.45356,0.03253,0.02935,0.04297,0.03196,0.05838,0.50327,0.02536,0.01541,0.71061,0.41111,0.64232,0.62776,0.03509,0.36500,0.63294
0.75527,0.61498,0.03878,0.30407,0.04672,0.03895,-0.00649,0.73465,0.01865,0.02038,0.65255,0.02412,0.03115,0.28015,0.06693,0.03717,0.35082,-0.00268,0.04265,0.06755,0.03662,0.00124,0.62180,0.02306,0.07394,0.28485,0.32164,0.52223,0.26737,-0.01093,0.41017,0.64386
0.67897,0.57663,0.02225,0.41447,0.01334,0.05032,0.07818,0.71542,0.05246,0.03144,0.51404,0.02642,0.01765,0.43680,0.08318,-0.01425,0.43652,0.02401,0.06432,0.04498,0.01511,0.00138,0.63995,0.03840,-0.01392,0.66651,0.67181,0.56098,0.63703,0.03506,0.60210,0.69320
0.46415,0.27957,0.03714,0.39595,-0.00688,-0.01753,0.00730,0.54100,0.04071,-0.01167,0.34096,0.02940,0.01739,0.65939,0.05333,0.02238,0.62029,0.05892,0.00032,0.00859,0.04830,0.04517,0.55231,0.04472,0.01248,0.58991,0.38252,0.38340,0.42513,0.04460,0.33613,0.60700
0.64141,0.34695,0.03978,0.57501,0.01041,0.01889,0.01121,0.35370,0.03120,0.04143,0.54763,0.03463,0.03652,0.60250,0.02941,0.07292,0.75900,-0.00220,0.04464,0.03064,0.05392,0.03296,0.45776,0.00770,0.03345,0.74424,0.46792,0.27431,0.63434,0.01379,0.31110,0.54695
0.46437,0.52869,0.03249,0.48897,-0.00753,0.03107,0.08177,0.33537,0.05706,0.05453,0.34771,0.06037,0.02185,0.54088,0.06845,-0.00165,0.62284,0.02638,0.03574,0.03876,0.00777,0.03159,0.57402,0.02503,0.03614,0.37226,0.69496,0.31869,0.56189,0.04518,0.64494,0.68050
0.68837,0.52767,0.02477,0.63665,0.02510,0.02630,0.03176,0.47288,0.06100,0.03182,0.64018,0.03929,0.05828,0.53180,0.06058,0.04852,0.49250,0.05243,0.03682,0.02146,0.02311,0.05351,0.71228,0.03375,0.03076,0.70055,0.72990,0.65943,0.56428,0.06143,0.35702,0.59764
0.28110,0.60027,0.01780,0.46870,0.00195,0.02951,0.02019,0.26803,0.00559,0.03570,0.45814,0.07844,0.03481,0.29179,0.04375,-0.00703,0.50854,0.04844,-0.00467,0.00136,0.02173,0.04417,0.60935,0.04266,0.03644,0.35658,0.67417,0.40379,0.64474,0.00998,0.76622,0.48486
0.53823,0.30561,0.01438,0.37695,0.00208,-0.01281,0.04268,0.26753,0.02115,0.02136,0.77370,0.01070,-0.00367,0.26554,0.00561,0.03810,0.26246,0.02423,0.04045,0.01475,0.03154,0.00656,0.36194,0.02622,0.03053,0.38595,0.32038,0.67578,0.59383,0.03013,0.64684,0.52973
0.46983,0.27580,0.04633,0.30397,0.00025,0.01458,0.01784,0.60556,0.01293,0.02187,0.62965,0.04149,0.04629,0.35210,0.04548,0.02488,0.55772,0.02353,0.04353,0.02198,-0.01256,0.02577,0.30333,0.00774,0.03034,0.42799,0.25569,0.64314,0.62255,0.03435,0.63640,0.59302
0.31559,0.35300,-0.00510,0.50121,0.00355,0.02412,0.06079,0.68863,0.06472,0.03982,0.32729,-0.00572,0.06281,0.57987,0.02533,0.00957,0.69739,0.01476,0.01635,-0.00207,0.01101,-0.01633,0.44916,0.01294,0.00860,0.64211,0.65794,0.25639,0.28762,0.01119,0.56316,0.35183
0.59452,0.50940,0.01201,0.26235,0.01120,0.03379,0.03755,0.26430,0.04568,0.02933,0.73466,0.03540,0.04024,0.64525,0.03089,0.04690,0.66432,0.00910,0.00711,0.05313,0.00455,0.02832,0.46821,0.04940,0.04643,0.26364,0.51773,0.72468,0.41206,0.01912,0.51918,0.39507
0.53059,0.43077,0.02152,0.23607,0.02159,0.03518,0.01920,0.54870,0.05847,0.02810,0.26549,0.00709,0.04458,0.46266,0.03204,0.01224,0.64610,0.01462,0.00530,0.05524,-0.00787,0.00159,0.31696,0.03730,0.02675,0.39330,0.49637,0.32035,0.70736,0.04501,0.63145,0.46219
0.44683,0.58842,0.02504,0.59244,0.03364,0.01562,0.02891,0.32952,0.02148,0.01701,0.27641,0.04644,0.00955,0.42269,0.06426,0.02640,0.42801,0.03067,0.05218,0.03077,0.02850,0.01676,0.52534,-0.01038,0.03733,0.36675,0.33734,0.65585,0.40661,0.03484,0.61475,0.49797
0.51664,0.67580,0.00524,0.43913,0.02935,0.01788,0.03169,0.66219,0.01010,0.03035,0.29702,0.03638,0.04366,0.57594,0.07192,0.02309,0.65787,0.03639,0.02027,0.02740,0.02070,0.06202,0.72123,0.02195,0.02980,0.36814,0.33942,0.26684,0.36075,0.03827,0.56479,0.62149
0.35260,0.34665,0.02120,0.65075,0.01722,0.04251,0.00174,0.31412,0.02931,0.02181,0.25058,0.06044,0.03446,0.34013,0.03468,0.01461,0.74766,0.03700,0.02630,0.00603,0.04382,0.05207,0.65898,0.02907,0.00772,0.70404,0.44812,0.54760,0.40170,-0.00876,0.39526,0.61213
0.67817,0.68769,0.01963,0.80102,0.04308,0.02416,0.02859,0.55628,0.02019,0.04811,0.60619,0.04276,-0.00118,0.55336,0.01841,0.01209,0.55027,0.01234,0.00992,-0.00585,0.05842,0.01769,0.31291,0.02964,0.02130,0.36281,0.63048,0.57178,0.62350,0.01470,0.49113,0.66485
0.27871,0.60449,0.04153,0.44342,0.02805,0.03891,0.02069,0.68089,0.04949,0.00451,0.36861,0.03430,0.02348,0.40428,0.04566,0.01923,0.34595,0.02201,0.00003,0.03708,0.01061,-0.00013,0.54465,0.04701,0.03466,0.25743,0.44052,0.30878,0.49604,0.03481,0.26174,0.60717
0.30717,0.36365,0.02741,0.73415,0.02558,0.04425,0.01226,0.38311,-0.00135,0.10385,0.40142,0.03181,0.04589,0.61671,0.00490,0.06693,0.73803,0.04791,0.01253,0.05204,0.02675,0.03539,0.57502,0.03754,-0.00400,0.42339,0.43549,0.38575,0.25563,0.01480,0.67259,0.50281
0.61329,0.66164,0.08866,0.61765,0.03479,-0.02036,0.02630,0.53476,0.06658,0.06075,0.65717,0.04639,0.02518,0.24967,0.01819,0.02180,0.36346,0.05487,0.06475,0.05515,0.04867,0.00197,0.43140,0.03679,0.06105,0.26591,0.57212,0.69485,0.72457,0.03887,0.49928,0.49205
0.49811,0.69166,0.02736,0.61245,0.05652,0.00613,0.02361,0.26024,0.03590,0.04346,0.27286,0.05476,0.01657,0.47636,0.01076,0.03324,0.50063,0.03134,0.03956,0.06444,0.05031,0.05117,0.67449,0.03769,0.01179,0.58247,0.48936,0.31092,0.46959,0.05264,0.74279,0.74491
0.65516,0.39263,0.02813,0.76366,0.05265,0.01972,0.00084,0.73574,0.00842,0.01179,0.48285,-0.02287,-0.01223,0.74548,0.03780,0.00908,0.68761,0.01258,0.00732,0.03529,0.07592,-0.01786,0.59471,-0.01177,0.04856,0.72641,0.56640,0.55823,0.37298,0.02604,0.63241,0.34368
0.58268,0.51879,0.02774,0.28021,0.04642,0.01096,0.03790,0.44132,-0.00127,0.04253,0.35058,0.03393,0.05717,0.40287,0.03593,0.02363,0.72767,0.00577,0.01179,0.01513,0.04719,0.04635,0.36747,0.01110,0.02523,0.36750,0.35823,0.24691,0.50837,0.02128,0.54561,0.70947
0.30985,0.31966,0.00616,0.65944,0.03579,0.02108,-0.00237,0.70811,0.05524,0.01926,0.47436,0.03329,0.04103,0.40834,0.08324,0.03249,0.73885,0.03622,0.04030,0.03110,0.04126,0.03221,0.49989,0.05024,0.03426,0.41478,0.55006,0.51579,0.59711,0.02354,0.48101,0.64736
0.28323,0.38537,-0.01326,0.55943,0.02591,0.01608,0.03701,0.71983,0.09010,-0.01001,0.51639,0.04699,0.04656,0.29122,0.03072,0.05030,0.71771,-0.00536,0.04524,0.01650,0.02293,0.04658,0.75117,0.04139,0.01410,0.40923,0.71376,0.51858,0.74374,0.01840,0.39532,0.45253
0.52033,0.72396,-0.00888,0.34982,0.04686,-0.00100,0.04168,0.34686,0.00880,0.01053,0.32307,0.03850,-0.01004,0.51955,0.01425,0.00459,0.24849,0.03355,0.01099,0.04446,0.04165,0.04711,0.27436,0.00195,0.02423,0.55897,0.53201,0.55790,0.64690,0.01212,0.47836,0.28386
0.73870,0.55135,0.00540,0.50273,0.03822,0.01805,0.04110,0.55865,0.04957,0.01777,0.29275,-0.01323,0.09391,0.50813,0.02442,0.03098,0.74138,0.03234,0.07486,0.02523,0.00748,0.07374,0.43419,0.03432,0.05027,0.59684,0.59353,0.44709,0.29613,0.01163,0.31995,0.51031
0.49758,0.43059,0.06236,0.29674,0.00866,0.07103,0.03645,0.66364,0.02365,0.00122,0.60056,0.01601,0.04221,0.34157,0.03694,0.00993,0.71805,-0.01464,-0.00328,-0.02527,0.04219,0.03213,0.70621,0.05866,0.01750,0.73662,0.53859,0.63850,0.25442,0.01446,0.69973,0.49661
0.26496,0.41026,0.03036,0.50513,0.01017,0.08784,0.03431,0.73458,-0.01362,0.04016,0.68234,0.01144,0.00500,0.62748,0.00664,0.03143,0.30844,0.02522,-0.02219,0.02810,0.04306,0.04609,0.54486,0.00278,0.04711,0.62740,0.31590,0.51204,0.64168,0.02256,0.73650,0.42822
0.29042,0.67898,0.03134,0.28389,0.03409,0.01236,-0.00087,0.59261,0.02354,0.05487,0.65985,-0.01702,0.00532,0.54615,0.04776,0.02352,0.76150,0.01357,0.00314,0.03095,0.04305,0.03014,0.37924,0.02075,0.04569,0.52700,0.68162,0.57342,0.37984,0.06538,0.57370,0.32846
0.68971,0.70453,0.06827,0.47369,0.03691,0.07083,-0.01312,0.35450,0.05703,-0.00207,0.47981,-0.00214,0.05287,0.48235,0.08032,0.08223,0.56836,-0.00274,0.03840,0.02646,0.02478,0.02665,0.70089,0.03145,0.04328,0.37779,0.59407,0.59248,0.63323,0.02184,0.46335,0.25705
0.56587,0.58761,0.05517,0.50824,0.03268,0.04394,0.04382,0.30813,0.02745,0.04830,0.46070,0.02676,0.04907,0.30952,0.01032,0.05066,0.59812,0.01515,-0.02292,0.06374,0.05625,0.06592,0.36499,0.02356,0.02175,0.49557,0.68753,0.42711,0.57706,0.02164,0.54537,0.47641
0.68109,0.58680,0.02682,0.72019,0.03867,0.02096,0.06073,0.74452,0.04252,0.04181,0.41881,0.01993,0.03652,0.28814,0.05836,0.04779,0.40814,0.06801,0.04432,-0.01171,0.01346,0.01926,0.34980,0.03002,0.02377,0.45034,0.36297,0.60749,0.59131,0.03191,0.47710,0.27891
0.59081,0.61443,0.01415,0.28791,0.01973,0.03751,0.03181,0.55189,0.03724,0.01325,0.37166,0.01781,0.03157,0.63066,0.04736,-0.01291,0.50176,0.02566,0.03067,0.02848,0.07761,0.06414,0.29326,0.03910,0.05627,0.43100,0.28570,0.42064,0.37573,0.04973,0.36001,0.47182
0.34811,0.57653,0.07378,0.50109,0.02042,0.03262,0.05693,0.75924,-0.00375,0.03574,0.31591,0.01604,0.01992,0.42017,-0.00652,0.00754,0.44310,0.02650,0.02065,0.07442,0.02756,0.03622,0.57840,0.02503,0.06859,0.44494,0.44729,0.38778,0.48398,0.06145,0.30796,0.61372
0.26041,0.65371,0.02058,0.31761,0.00310,0.04934,0.01878,0.29785,0.04601,0.03720,0.51991,0.03928,0.00026,0.69730,0.00987,0.04148,0.44643,0.06235,0.01767,0.07420,0.06426,0.05600,0.39866,0.04997,0.02754,0.30839,0.64729,0.42328,0.60048,0.03262,0.24917,0.60392
0.32177,0.41504,0.05093,0.65462,0.03703,0.02348,0.05106,0.70673,0.06593,-0.00538,0.68324,0.05120,0.03458,0.30319,0.02615,0.01822,0.43391,0.02003,0.00183,0.04209,0.02645,0.03156,0.45886,0.02510,0.02259,0.35083,0.46096,0.67192,0.54580,0.01625,0.64804,0.38811
0.47429,0.66780,0.02686,0.46377,0.02056,0.03178,0.00204,0.68816,0.02886,0.00966,0.63209,0.00203,0.01895,0.69712,0.05511,0.03149,0.31993,0.00613,0.00994,0.02486,0.02634,0.01288,0.34411,0.02711,0.01097,0.37843,0.42857,0.38613,0.30796,-0.00960,0.71179,0.43455
0.33156,0.56204,0.03454,0.70353,0.02283,0.04141,0.01486,0.25096,-0.01269,0.04437,0.54214,0.02943,0.02851,0.61594,-0.01234,0.04282,0.45137,-0.01417,0.05133,0.04707,0.03064,0.03738,0.30314,0.02016,0.02047,0.46041,0.33278,0.49001,0.76090,-0.02272,0.58297,0.44709
0.55944,0.72104,0.03838,0.42932,0.04984,0.05936,0.00009,0.57721,0.04331,0.06664,0.32552,-0.02493,-0.00035,0.32026,0.03179,-0.00807,0.35099,0.03151,0.06877,0.05260,0.03808,0.03550,0.61155,0.00214,0.01228,0.58346,0.53572,0.54076,0.25604,0.01463,0.24941,0.44135
0.72392,0.37008,0.03120,0.61211,0.00329,0.01231,0.00807,0.37920,0.01749,0.02855,0.39514,0.03333,0.04445,0.29343,-0.01052,0.02145,0.30359,0.04697,0.04689,0.02934,0.04668,0.04537,0.47091,0.02514,0.04561,0.47761,0.29186,0.37749,0.56582,0.03302,0.47044,0.51686
0.47154,0.57603,0.04848,0.66754,0.02580,0.03752,0.04770,0.40494,0.00184,0.01530,0.56939,0.01225,0.04482,0.67981,0.05111,0.00347,0.65187,0.04913,0.02740,0.03071,0.06420,0.03155,0.39573,0.04975,0.01492,0.57138,0.49347,0.73360,0.56553,0.03734,0.32789,0.24777
0.45334,0.60887,0.02637,0.22850,-0.00468,0.03748,-0.01092,0.57973,0.04139,0.04860,0.61136,0.01392,0.04050,0.42861,0.01737,0.04136,0.30886,0.01592,0.05038,0.01538,0.02279,-0.00615,0.56977,0.00729,0.05418,0.56569,0.30946,0.76906,0.35861,0.01480,0.51954,0.32067
0.64430,0.57848,0.00555,0.60047,0.05011,0.01233,0.00419,0.55299,0.03443,0.06905,0.60858,0.00152,0.05289,0.61862,0.03378,0.03777,0.54163,0.02512,0.01293,-0.03868,0.03324,0.03287,0.54744,0.00906,0.01774,0.57328,0.46988,0.58738,0.35032,0.04868,0.65927,0.47050
0.75141,0.53622,0.02431,0.26355,0.01378,0.07162,0.02889,0.68592,0.03711,0.05356,0.60886,0.04814,0.02306,0.28572,0.00542,0.05196,0.27731,0.04392,0.05644,0.05406,0.01376,0.02590,0.41659,0.03703,0.00938,0.71978,0.46325,0.41093,0.71189,0.03706,0.35447,0.68593
0.55078,0.61047,0.06844,0.37171,0.02578,0.02542,0.03793,0.27987,0.04215,0.00866,0.67074,0.04220,0.06806,0.30804,-0.01175,0.04858,0.34620,0.01460,0.06876,0.04891,0.06693,0.04005,0.72068,0.00029,0.04770,0.34643,0.33711,0.46217,0.74075,0.00907,0.68828,0.72066
0.35780,0.49594,0.07180,0.70439,0.06244,0.06837,0.03946,0.41890,0.00097,-0.00325,0.56530,0.06425,-0.00016,0.54976,0.02550,0.02314,0.49892,0.04458,-0.00154,0.00204,0.04289,0.04255,0.54592,0.04775,0.02726,0.55636,0.60472,0.24844,0.66107,0.04429,0.29842,0.69906
