emg0,imu_ax,imu_ay,imu_az,imu_gx,imu_gy,imu_gz
0.05003,0.00126,0.20274,9.84220,0.28124,-0.03781,0.01789
0.02677,0.00279,0.21164,9.82313,0.30221,-0.01477,-0.02029
-0.00922,-0.00874,0.21809,9.81148,0.29416,-0.01728,0.02810
0.06671,0.00518,0.20248,9.82565,0.27773,0.01137,-0.03029
0.05032,0.00025,0.18219,9.79792,0.27074,-0.02696,-0.02762
0.00179,0.00350,0.20819,9.82277,0.30699,0.01300,0.00957
0.02137,0.01005,0.20198,9.82526,0.32663,-0.01120,-0.00948
0.02911,0.00836,0.20836,9.83853,0.29810,-0.02846,-0.01064
0.04263,-0.00335,0.20853,9.81349,0.29844,0.01368,0.03829
0.01008,-0.00138,0.19168,9.82905,0.28863,-0.00141,0.01499
0.02972,0.01792,0.20809,9.79791,0.31324,0.06804,-0.00872
0.01589,0.01603,0.20893,9.81547,0.27974,0.01807,0.00762
-0.00747,0.00081,0.20097,9.80767,0.29441,-0.02975,-0.01533
0.03060,0.01429,0.20689,9.76248,0.31416,0.01112,-0.01100
0.04916,0.02649,0.20578,9.79776,0.28232,-0.02100,0.01944
0.05897,0.00927,0.18790,9.82770,0.29998,0.04567,0.00562
0.04978,0.00007,0.21916,9.82460,0.30790,-0.00277,-0.00755
0.03848,0.00853,0.19478,9.78504,0.30380,-0.00383,0.04041
0.03361,0.02057,0.19915,9.79670,0.27519,0.06044,-0.01264
0.01316,0.01412,0.20491,9.79599,0.32253,0.00176,0.01400
0.00733,0.00413,0.21641,9.78781,0.31316,0.00635,-0.00677
0.00684,0.02185,0.19486,9.77547,0.30583,0.00459,-0.01216
-0.00115,0.01477,0.18417,9.81665,0.27315,-0.05104,0.01654
0.03695,0.01572,0.19421,9.81801,0.32011,-0.01425,0.00762
0.04167,0.00629,0.20813,9.79065,0.37208,0.02378,0.02713
-0.00241,0.01528,0.19508,9.79619,0.30102,-0.00565,0.00405
0.04200,0.01152,0.20233,9.78847,0.25528,0.02336,0.02547
0.03582,0.01744,0.20692,9.83581,0.29459,-0.03205,-0.00870
-0.00370,0.00722,0.20350,9.80065,0.30764,-0.00199,0.01055
0.05999,0.01413,0.20501,9.82160,0.29012,-0.02304,-0.01556
0.00653,0.00803,0.20618,9.80461,0.29655,-0.01444,-0.02368
0.04218,0.00786,0.21525,9.82988,0.30939,0.06661,-0.00065
0.02080,0.02271,0.21882,9.79320,0.31356,-0.01321,0.02075
0.06780,-0.00701,0.18091,9.80858,0.29753,0.00690,-0.01539
0.04486,0.01400,0.20354,9.81631,0.28451,-0.00523,-0.02515
0.00164,0.01128,0.19412,9.76669,0.30267,0.00500,-0.00725
0.02743,0.01779,0.20186,9.78177,0.29705,0.03279,-0.02003
0.00855,0.03587,0.20940,9.83068,0.28523,0.01340,-0.02279
0.03140,0.02406,0.21433,9.78885,0.32691,-0.03287,0.00376
0.03276,0.02227,0.17957,9.78683,0.31489,0.02602,0.03806
0.07703,0.01612,0.20161,9.80696,0.29789,-0.01791,0.03266
0.02576,0.02224,0.19265,9.81223,0.29007,0.02747,-0.02847
0.03070,0.00963,0.19391,9.84350,0.29996,0.00433,0.00624
0.05764,0.02816,0.19829,9.79727,0.28363,0.02462,-0.00293
0.08291,0.03831,0.21108,9.85618,0.29835,0.00954,-0.02961
0.03732,0.01179,0.19255,9.79031,0.31657,-0.00093,0.03140
0.03725,0.01605,0.19681,9.77769,0.29011,-0.01672,0.02674
0.03748,0.01454,0.21782,9.80681,0.28258,-0.00746,0.01909
0.02412,0.02760,0.17911,9.83276,0.28011,-0.03876,-0.01266
0.02020,0.03129,0.19997,9.78617,0.31035,-0.01261,-0.01848
0.03338,0.03456,0.21445,9.78925,0.30315,0.00737,-0.02818
0.02231,0.03096,0.18478,9.80335,0.28642,0.00140,0.00422
-0.01612,0.02750,0.20922,9.81914,0.28998,-0.00957,-0.00772
0.00028,0.02436,0.19906,9.81021,0.26467,0.01650,0.01306
0.04360,0.02226,0.20713,9.81470,0.31171,-0.01800,0.00942
0.01649,0.00567,0.18612,9.83138,0.28151,-0.00455,-0.02327
-0.00083,0.02003,0.19948,9.78732,0.29797,0.01505,-0.02211
0.00470,0.02122,0.19420,9.82450,0.30647,-0.00239,0.01739
0.04056,0.03283,0.19453,9.78061,0.31758,0.00804,-0.02000
0.01572,0.00874,0.21035,9.78336,0.28317,0.02117,-0.02669
0.04502,0.02857,0.20035,9.77081,0.31863,-0.00601,-0.00039
0.00796,0.02999,0.20684,9.80553,0.30053,-0.01553,0.02585
0.03855,0.03883,0.20962,9.83006,0.31831,0.00338,-0.00431
0.03244,0.03696,0.20829,9.82856,0.30460,0.00425,0.01728
0.01362,0.04160,0.20366,9.79673,0.30193,0.00195,-0.08359
0.00436,0.02034,0.18579,9.79061,0.27111,0.01267,-0.00415
0.02159,0.03529,0.19366,9.78746,0.30459,0.03039,0.00128
0.02116,0.03145,0.19497,9.83182,0.25144,0.00355,0.00287
0.00215,0.00936,0.18728,9.82916,0.32550,0.01408,-0.00646
0.03153,0.04043,0.18895,9.85162,0.33784,0.00376,-0.01808
0.01153,0.04154,0.18934,9.84271,0.30233,-0.00849,0.02756
0.03293,0.03055,0.18958,9.80473,0.24651,-0.00457,0.03606
0.00987,0.03496,0.19895,9.79430,0.32057,-0.03026,0.03534
0.04372,0.02093,0.20290,9.80650,0.30136,0.00751,-0.01021
0.02676,0.02607,0.21123,9.78877,0.29751,0.00282,0.00802
0.03389,0.01845,0.20108,9.79949,0.27108,-0.03543,0.00205
0.02324,0.05082,0.19531,9.83477,0.27360,0.00412,-0.02955
0.03986,0.03387,0.19227,9.80991,0.30795,0.00356,0.00944
0.03206,0.03028,0.20228,9.83250,0.28904,-0.05411,-0.01612
0.01550,0.03960,0.20661,9.81145,0.30074,-0.01565,-0.00341
0.01503,0.03250,0.21399,9.83871,0.25709,0.00233,-0.02012
0.01811,0.03936,0.20283,9.83125,0.28933,0.00886,-0.01820
0.01266,0.03611,0.20747,9.83074,0.27631,0.06027,0.02502
0.05623,0.04080,0.19293,9.78833,0.29436,-0.03713,0.01397
0.03520,0.05255,0.18717,9.78913,0.31031,-0.00441,0.00713
0.04823,0.04175,0.20335,9.83188,0.29770,-0.01380,-0.00923
0.01362,0.02538,0.18522,9.81869,0.32854,-0.01620,-0.02080
0.02220,0.02968,0.20552,9.78377,0.26221,0.00357,-0.00682
0.00820,0.05687,0.19234,9.80305,0.31883,0.02152,-0.01485
-0.01545,0.03770,0.19998,9.83061,0.30235,-0.00666,0.01364
0.05468,0.03775,0.17797,9.78766,0.32688,-0.00008,-0.00070
0.04338,0.02845,0.20249,9.82094,0.29057,-0.02440,-0.01450
0.04529,0.04821,0.19237,9.83580,0.30808,-0.01395,-0.00572
0.02789,0.04857,0.18817,9.79331,0.30167,-0.02355,0.04749
-0.03218,0.04139,0.19295,9.78908,0.28571,0.00668,-0.02171
0.05942,0.04501,0.19307,9.76634,0.28271,-0.02865,0.01174
0.04566,0.04275,0.20019,9.82172,0.27252,-0.00796,0.05197
0.07686,0.04066,0.20099,9.82159,0.27609,-0.00497,-0.02333
0.05164,0.02184,0.20029,9.83530,0.26284,0.03017,-0.04108
0.03879,0.04355,0.21721,9.76984,0.32015,-0.03703,-0.00180
0.01550,0.05960,0.21138,9.80984,0.31110,0.01999,-0.01426
0.05225,0.03891,0.20222,9.82163,0.32489,-0.01313,-0.00636
0.07008,0.05232,0.19470,9.77490,0.27388,0.01938,0.02418
-0.02092,0.05980,0.20249,9.77593,0.27441,0.01516,-0.01531
-0.00008,0.05305,0.18745,9.82563,0.30874,0.01857,0.01784
0.03228,0.03773,0.18396,9.83375,0.26423,-0.01272,0.01195
0.03896,0.02944,0.20342,9.81168,0.26525,-0.03307,0.03314
0.02748,0.06171,0.20797,9.82508,0.28023,-0.01490,-0.04059
0.02114,0.04264,0.19578,9.81794,0.27035,-0.00503,0.00322
0.00559,0.06066,0.18965,9.81254,0.33972,0.01384,0.01741
0.02253,0.05293,0.20698,9.76948,0.29038,-0.01054,-0.01720
0.03922,0.04527,0.19168,9.80998,0.33409,0.00618,0.01872
0.03159,0.06547,0.17176,9.78159,0.27988,0.05302,-0.00873
0.01855,0.04646,0.18452,9.83603,0.30357,-0.04330,0.00089
0.03185,0.04038,0.19118,9.83278,0.27338,-0.02073,-0.00533
0.01129,0.03890,0.18411,9.79958,0.28144,-0.02453,0.00957
0.05109,0.05882,0.19961,9.79757,0.31183,0.01838,0.02421
0.03802,0.05853,0.19296,9.82037,0.27449,0.01152,-0.03107
0.06363,0.07225,0.21621,9.85032,0.31535,-0.02472,0.05189
0.03256,0.04396,0.21290,9.83471,0.29694,-0.02870,0.00838
0.00311,0.04676,0.20414,9.80649,0.29514,0.00448,0.01918
0.02538,0.05729,0.20323,9.82962,0.25540,-0.00660,0.01940
0.03527,0.05429,0.19516,9.81042,0.30271,-0.00703,-0.02855
0.04585,0.06740,0.19620,9.80944,0.28284,-0.00786,0.00465
-0.01155,0.07146,0.20908,9.81393,0.24835,0.01708,0.00563
0.02836,0.03196,0.19205,9.79728,0.30987,0.00377,0.00949
0.01214,0.06309,0.19117,9.78904,0.32899,0.00470,0.00042
0.04231,0.07488,0.20676,9.81371,0.30750,0.01220,-0.01304
0.02065,0.05944,0.20316,9.80131,0.30436,0.01108,0.01344
0.04194,0.07793,0.20128,9.81134,0.31150,0.00301,0.00583
0.00460,0.05810,0.18247,9.81516,0.28419,-0.00080,-0.04822
0.01514,0.06542,0.17997,9.78806,0.29070,0.00691,-0.00159
0.00456,0.07054,0.17773,9.81268,0.30092,0.00366,-0.00573
0.01861,0.05373,0.19026,9.78058,0.35106,-0.02159,-0.00420
0.05843,0.07172,0.20834,9.78683,0.29718,-0.03172,0.00478
0.04325,0.05727,0.20892,9.80228,0.29778,-0.02651,0.01314
0.05224,0.08210,0.21682,9.82546,0.30069,0.00498,-0.00257
-0.00477,0.05303,0.19295,9.80510,0.30204,-0.01793,0.02354
0.05911,0.05270,0.21286,9.80466,0.27732,0.02109,0.00678
0.05018,0.07996,0.21173,9.78716,0.31796,-0.03243,-0.01629
0.07683,0.06245,0.18873,9.79122,0.33816,0.00756,0.00755
0.00656,0.06334,0.19135,9.80882,0.29454,0.01768,-0.01886
0.04482,0.07733,0.21581,9.81634,0.29710,0.02037,-0.01039
0.05282,0.06895,0.18679,9.81566,0.29581,0.01524,0.02318
0.03114,0.08182,0.18879,9.81194,0.28749,0.03319,0.01601
0.03740,0.06267,0.18914,9.80697,0.28696,-0.02140,0.01654
0.01086,0.07468,0.20453,9.82167,0.29097,0.00220,-0.00023
0.01398,0.06522,0.18825,9.82812,0.26066,0.03578,0.01741
0.06104,0.07171,0.20800,9.79004,0.26377,-0.01399,-0.00860
0.02052,0.06138,0.21555,9.78216,0.26629,0.00752,-0.00415
0.04145,0.08330,0.18959,9.80699,0.28498,0.01693,-0.00605
0.04083,0.07944,0.20735,9.82540,0.28127,-0.00524,-0.03660
0.04042,0.07650,0.20391,9.83569,0.29336,-0.02914,0.01522
0.06071,0.07182,0.18261,9.76690,0.30571,-0.02611,-0.01120
0.05222,0.06122,0.20168,9.81611,0.27539,0.00603,-0.00105
0.03694,0.06820,0.20966,9.84537,0.30436,0.03541,0.01853
0.02282,0.06485,0.18710,9.81590,0.30209,-0.04108,-0.03464
0.04587,0.06823,0.20970,9.81417,0.29673,0.03409,0.02594
0.02003,0.06207,0.20299,9.82334,0.27091,0.00820,-0.01164
0.02451,0.07198,0.20948,9.79577,0.31363,0.00704,-0.02800
0.04195,0.08297,0.19603,9.84134,0.26646,-0.03624,0.01260
0.01961,0.08084,0.20664,9.84033,0.28421,-0.02093,0.01689
0.03603,0.08450,0.20417,9.77461,0.27226,-0.03295,-0.00214
0.00045,0.06952,0.19109,9.79773,0.30471,0.00589,0.01257
0.02915,0.07697,0.20202,9.81610,0.29526,-0.00766,0.00497
0.00386,0.08562,0.20154,9.81108,0.27943,-0.00851,0.00832
0.04475,0.05923,0.20483,9.82851,0.26441,0.01596,0.00170
0.04516,0.07762,0.18848,9.79318,0.28609,0.00810,-0.02099
0.00734,0.09607,0.21046,9.80783,0.28572,0.01923,-0.05130
0.03057,0.08035,0.19420,9.81000,0.31813,0.01788,-0.01808
0.04020,0.06300,0.19566,9.84312,0.28317,0.04298,0.01290
0.06054,0.08145,0.21015,9.80728,0.29301,0.02231,0.00776
0.04145,0.07965,0.22211,9.81814,0.30452,-0.02455,0.00280
0.01309,0.08785,0.18582,9.83012,0.31294,-0.00195,0.00065
0.01596,0.09986,0.18398,9.80027,0.27930,-0.00169,-0.00401
0.03288,0.06578,0.20792,9.80065,0.29132,0.02231,-0.01513
0.00068,0.08108,0.20590,9.82662,0.27747,-0.00980,-0.02558
0.03236,0.08594,0.19873,9.78652,0.28460,0.02535,-0.00186
-0.00121,0.08535,0.20691,9.80818,0.32342,0.00359,-0.01823
0.06075,0.08534,0.18315,9.80702,0.29345,-0.03513,-0.01045
0.02432,0.07261,0.19454,9.78338,0.29081,-0.00669,0.00362
0.00198,0.09047,0.20111,9.85495,0.30007,-0.05986,-0.00580
0.03059,0.10123,0.20268,9.82752,0.29554,-0.03933,-0.00508
0.03502,0.09762,0.18872,9.82560,0.27553,0.02310,-0.00385
0.05145,0.07986,0.20436,9.77942,0.31145,0.01293,0.01103
0.00207,0.09874,0.20635,9.80056,0.31290,-0.02736,0.01370
0.06453,0.09161,0.17794,9.86672,0.27869,0.05529,0.00748
0.03159,0.07501,0.21285,9.78879,0.24251,0.01707,0.02138
0.04572,0.08801,0.20094,9.79120,0.26783,0.01738,-0.02381
0.02497,0.07588,0.21145,9.78804,0.27588,-0.02322,0.01731
0.04717,0.09877,0.18933,9.81012,0.27231,-0.00589,-0.00140
0.06659,0.08361,0.22094,9.79978,0.28716,0.01321,-0.01752
0.03389,0.09044,0.19119,9.77483,0.27863,0.01674,0.02295
0.05166,0.09882,0.18652,9.83558,0.27375,0.00647,-0.02295
0.02196,0.09510,0.19977,9.80553,0.26808,-0.00639,0.00838
0.00945,0.09771,0.20362,9.84186,0.28596,-0.03380,-0.00551
0.08763,0.10276,0.19233,9.79295,0.27808,-0.01664,0.02507
0.01004,0.10203,0.22286,9.76992,0.30381,0.00968,0.00351
0.02861,0.09927,0.19683,9.79217,0.32517,-0.01540,0.00861
0.02154,0.08722,0.19753,9.80195,0.30881,-0.01215,-0.00020
0.05986,0.10466,0.19664,9.78320,0.29946,-0.02152,0.00218
0.01209,0.08475,0.18895,9.79013,0.25741,-0.02472,0.01429
0.01840,0.08754,0.21019,9.80382,0.29527,-0.02862,-0.00229
0.02424,0.08322,0.20338,9.81778,0.31107,-0.01220,0.02941
0.07193,0.07347,0.20566,9.82409,0.26849,-0.00662,-0.01543
0.02574,0.10160,0.20383,9.78936,0.30297,0.00044,0.04005
0.00751,0.10685,0.19257,9.84134,0.26038,0.00026,-0.01718
0.01583,0.10686,0.19508,9.82362,0.28139,-0.00388,0.00514
0.05139,0.08631,0.18688,9.81456,0.29630,-0.01740,0.02385
0.01620,0.08984,0.20661,9.79810,0.27835,-0.00738,-0.00257
0.03159,0.08895,0.21413,9.80793,0.32372,0.03691,-0.02798
0.04719,0.11302,0.19277,9.81751,0.30632,-0.00609,-0.00000
0.00782,0.10773,0.18588,9.81729,0.26577,-0.00173,-0.00903
0.03695,0.09779,0.19062,9.79061,0.31551,-0.03077,-0.00634
0.03169,0.09002,0.18614,9.76038,0.25233,-0.01792,-0.00471
-0.01436,0.07344,0.20317,9.81710,0.24919,-0.02825,-0.01499
0.04600,0.11204,0.18500,9.78378,0.30100,0.02420,0.04771
0.02789,0.10874,0.20003,9.82778,0.30768,-0.02921,0.01844
0.06537,0.08887,0.20403,9.81416,0.28728,0.01710,-0.01280
0.00361,0.11124,0.21851,9.79975,0.29807,0.00440,-0.03165
0.02473,0.08858,0.20164,9.82407,0.26893,-0.00510,0.01657
0.02082,0.10603,0.21402,9.80243,0.29901,0.03258,-0.01442
0.04487,0.11274,0.17858,9.84841,0.30266,-0.04522,0.00557
0.00803,0.10071,0.18995,9.79560,0.28724,-0.01332,0.00176
0.05934,0.09690,0.20793,9.83101,0.26888,-0.00773,-0.01188
0.01258,0.11342,0.20227,9.80812,0.27244,0.00027,-0.00202
0.04996,0.09968,0.21776,9.79370,0.26809,0.00188,0.01715
0.03042,0.10815,0.19654,9.78788,0.27001,-0.00790,-0.04632
0.06116,0.12340,0.20899,9.85012,0.30108,-0.00036,-0.04696
0.04523,0.12370,0.18972,9.83587,0.28231,0.04460,0.03564
0.04852,0.10499,0.17527,9.81181,0.29396,-0.01809,0.00344
0.02903,0.09883,0.20084,9.82275,0.31055,0.00656,-0.02506
0.05549,0.12429,0.21380,9.78742,0.27182,-0.00082,-0.00621
0.00804,0.10379,0.20561,9.80901,0.29475,0.00117,-0.04962
0.02354,0.10610,0.19010,9.78473,0.28924,0.00382,-0.00713
0.04918,0.12036,0.18928,9.80626,0.28906,0.01446,-0.00841
0.03550,0.11372,0.20830,9.83724,0.26329,-0.01279,-0.02149
0.02426,0.10530,0.19279,9.81053,0.31298,0.00578,-0.00591
0.02609,0.10548,0.19552,9.80720,0.25660,-0.00700,-0.01023
0.01982,0.10485,0.19816,9.81732,0.30453,0.02010,0.01293
0.01628,0.11367,0.19546,9.81185,0.24367,0.00849,-0.00336
0.01969,0.11030,0.18564,9.82764,0.28392,0.05903,0.02500
0.08533,0.12087,0.20881,9.81406,0.28264,-0.03384,0.02855
0.02370,0.12133,0.19831,9.83975,0.24658,-0.02152,0.02134
0.00662,0.10839,0.19513,9.82025,0.25437,-0.00569,-0.00197
0.00105,0.12072,0.19993,9.79840,0.25582,-0.03649,-0.00742
0.01330,0.11943,0.21357,9.79768,0.30552,0.02371,-0.02979
0.05808,0.12002,0.19938,9.81421,0.28080,-0.02548,-0.01797
0.01526,0.10356,0.19939,9.82393,0.28199,-0.00515,-0.01652
0.03907,0.11310,0.18999,9.78560,0.26010,-0.00728,0.01531
0.01174,0.10858,0.19758,9.81674,0.31619,-0.01308,0.02383
0.01302,0.08822,0.19941,9.83785,0.26628,0.00391,-0.01708
0.03899,0.12325,0.19898,9.78735,0.28669,-0.01373,-0.00954
0.00751,0.09163,0.18864,9.79996,0.27284,0.00060,0.01347
0.06863,0.10718,0.21207,9.82763,0.28221,0.01472,-0.01254
0.01709,0.12313,0.21431,9.80589,0.25100,-0.04002,0.00521
0.02838,0.11667,0.22224,9.79032,0.33439,0.05295,-0.01478
0.03510,0.12383,0.21992,9.77726,0.26477,-0.01808,0.01684
0.02404,0.12996,0.19405,9.81016,0.29806,-0.00264,0.02369
-0.01135,0.10741,0.20521,9.81202,0.28656,-0.00316,0.04662
0.02238,0.12171,0.19388,9.82714,0.28709,-0.02037,-0.01715
-0.00238,0.13062,0.17510,9.79538,0.25708,0.01750,0.03101
0.01578,0.10835,0.20940,9.79753,0.27058,-0.00541,0.03786
0.05153,0.11179,0.18374,9.77722,0.29488,0.00365,0.03113
-0.00404,0.12023,0.18760,9.79000,0.25748,-0.01536,-0.00230
0.03172,0.13325,0.19944,9.80147,0.32881,0.03642,0.00394
0.05038,0.10085,0.20204,9.81561,0.28194,0.01051,-0.03625
0.01694,0.11416,0.20434,9.78856,0.28837,0.01428,-0.00088
0.05232,0.11039,0.20912,9.78374,0.29006,0.01083,-0.00643
0.01307,0.12830,0.20885,9.77794,0.28775,-0.03618,-0.01589
0.01205,0.12262,0.20331,9.84908,0.29070,-0.01475,0.00753
0.04503,0.13395,0.19085,9.85499,0.28266,-0.02012,0.04691
0.03306,0.10820,0.19524,9.81477,0.28079,0.01265,0.01007
0.02478,0.11617,0.21307,9.84810,0.31887,-0.00381,-0.02327
0.06446,0.12839,0.20326,9.79451,0.27857,-0.04943,-0.02746
0.03672,0.12069,0.22941,9.79128,0.27355,0.01983,-0.00769
0.03088,0.12211,0.18527,9.78574,0.27034,-0.00805,0.01786
0.06002,0.12555,0.18969,9.81160,0.27331,-0.00676,0.01764
0.03176,0.13131,0.18632,9.81804,0.26798,0.00252,-0.00537
0.03996,0.12252,0.20719,9.80485,0.29078,0.03708,0.02183
0.06797,0.12561,0.20311,9.82713,0.28233,0.01297,-0.00722
0.02835,0.11769,0.20383,9.82349,0.27832,0.00060,0.02801
0.03601,0.13271,0.19014,9.85592,0.25730,0.02420,0.00596
0.00818,0.13658,0.18018,9.82068,0.26910,-0.02084,0.04382
0.00074,0.15285,0.20647,9.80676,0.26276,-0.02187,-0.01324
0.01944,0.13355,0.18918,9.82944,0.28734,-0.02102,-0.01376
-0.01158,0.12226,0.18306,9.81750,0.25486,0.00626,-0.01300
0.00425,0.12044,0.20465,9.80004,0.25896,-0.01721,-0.02662
0.09336,0.14447,0.18825,9.81263,0.22487,-0.00187,-0.00897
0.01533,0.11768,0.21469,9.78225,0.26306,0.02947,0.01742
0.01704,0.14300,0.22583,9.82576,0.26052,-0.01814,0.00088
-0.02403,0.13974,0.19876,9.78586,0.26758,-0.02289,-0.01268
0.00171,0.14331,0.18823,9.79755,0.26649,0.00369,0.01643
0.05652,0.15058,0.21407,9.82088,0.28222,-0.01308,0.00377
0.00825,0.13488,0.19534,9.79344,0.25725,0.03466,0.02917
0.06018,0.13104,0.19283,9.82488,0.26685,0.00540,0.01051
0.04583,0.13224,0.19291,9.81718,0.25464,-0.01643,0.02714
0.02595,0.12622,0.19275,9.80619,0.25491,0.00053,-0.03637
0.04942,0.14704,0.20160,9.82639,0.25268,0.00411,0.01593
0.01556,0.12409,0.19029,9.79420,0.25790,0.01566,-0.02288
0.03482,0.12769,0.19498,9.80445,0.27398,0.00747,-0.00434
0.04776,0.12581,0.19743,9.82275,0.28208,0.01116,0.02613
-0.01668,0.10266,0.18721,9.80215,0.27793,0.01341,-0.00633
0.02778,0.14243,0.19844,9.83053,0.21939,-0.02336,-0.00080
0.00251,0.14712,0.19396,9.81059,0.29965,0.00652,-0.00419
0.04661,0.14329,0.20772,9.80840,0.23218,-0.00933,-0.00301
0.02428,0.11988,0.18562,9.83761,0.29679,0.00824,-0.05800
0.00069,0.14672,0.18345,9.78746,0.33871,-0.01760,0.00575
-0.01980,0.15103,0.19924,9.79548,0.27548,-0.02472,-0.01862
0.05940,0.14226,0.20277,9.81367,0.27847,0.01731,0.00677
0.00627,0.13779,0.19568,9.79415,0.26083,0.03928,0.03004
0.01511,0.15740,0.19395,9.86458,0.23435,0.00699,-0.00773
0.04105,0.15651,0.20602,9.78017,0.25432,-0.02074,-0.01399
0.02003,0.12762,0.20221,9.81645,0.25842,-0.01607,-0.00158
0.00976,0.15952,0.19766,9.81124,0.26915,-0.03212,-0.00265
0.01293,0.13970,0.20079,9.79631,0.26101,-0.01247,0.00590
0.03164,0.13439,0.18656,9.79784,0.24552,0.00169,-0.00259
0.01224,0.14514,0.18711,9.83806,0.29136,-0.00069,0.00027
0.05276,0.15780,0.20773,9.83136,0.28849,0.03907,-0.00438
0.05134,0.12862,0.21353,9.82017,0.28045,-0.01060,0.02914
0.00457,0.13110,0.20930,9.81016,0.27252,0.01061,-0.00116
0.03340,0.15662,0.17073,9.80059,0.26766,0.01774,0.00846
0.05080,0.15004,0.20187,9.80261,0.26735,-0.03309,0.04218
0.06602,0.14397,0.19763,9.79734,0.24478,-0.00485,-0.02771
-0.00636,0.15368,0.20058,9.80344,0.28896,0.01972,-0.01665
0.03339,0.14390,0.20290,9.80859,0.27002,-0.02557,-0.00891
0.03877,0.13141,0.20630,9.78606,0.25382,0.02289,-0.03314
0.02188,0.16699,0.20501,9.83243,0.25472,0.01787,0.01531
-0.02147,0.14240,0.22105,9.80616,0.28788,0.02929,-0.01734
0.02754,0.14967,0.17303,9.81047,0.25718,0.01421,0.00642
0.04897,0.15464,0.18373,9.80883,0.23987,-0.00014,-0.00247
0.02318,0.14248,0.19241,9.80120,0.28261,0.01053,0.03478
0.00915,0.15789,0.20543,9.78393,0.28846,0.01250,-0.00486
-0.02167,0.15845,0.20326,9.78377,0.26780,-0.01198,0.03065
0.06017,0.16041,0.19595,9.79859,0.28293,-0.00708,0.00657
-0.01125,0.16229,0.21021,9.80509,0.30084,0.00066,-0.00484
0.03821,0.15411,0.19465,9.78451,0.27869,0.01026,-0.01502
0.05013,0.14574,0.20338,9.83085,0.27468,-0.00245,-0.01419
0.06862,0.15676,0.19808,9.83258,0.25024,0.00765,0.03584
0.01504,0.16580,0.18923,9.79459,0.26701,-0.02761,0.01603
0.04019,0.15666,0.17612,9.80945,0.27374,0.03262,0.04931
0.01128,0.14457,0.19943,9.82000,0.24324,-0.00239,-0.00083
0.00535,0.14960,0.18964,9.79444,0.23818,-0.01271,0.00187
0.02896,0.15381,0.19015,9.83053,0.25832,0.00197,0.01834
0.07540,0.13660,0.21226,9.81027,0.27604,-0.02620,0.01951
0.03708,0.15061,0.19779,9.84154,0.25641,0.03761,0.02488
0.01109,0.15259,0.17874,9.84892,0.26449,0.00456,0.02475
0.04480,0.14519,0.19317,9.82433,0.25325,-0.00120,0.01736
0.02909,0.13978,0.19427,9.82450,0.26829,0.00609,0.00496
-0.00638,0.16145,0.20718,9.78937,0.26977,0.01331,-0.00301
0.02330,0.16114,0.20590,9.83546,0.27006,-0.02741,0.03681
0.03437,0.16285,0.20163,9.79520,0.27445,-0.00686,-0.01393
0.06469,0.15888,0.18166,9.81982,0.25532,0.02227,0.00365
0.00501,0.17107,0.17260,9.83538,0.28233,-0.01960,0.02029
0.02089,0.15387,0.19830,9.80612,0.29446,0.01701,-0.00985
0.04581,0.16238,0.18960,9.83144,0.26045,0.01287,0.02273
0.03578,0.15998,0.19496,9.79875,0.25713,0.01256,-0.00773
0.05678,0.15337,0.19235,9.80424,0.27384,-0.00674,-0.00222
0.03207,0.16434,0.20659,9.79380,0.22928,-0.02636,0.01677
-0.01948,0.15172,0.20714,9.76604,0.25780,-0.01983,-0.00030
0.01450,0.16644,0.21119,9.78885,0.31094,0.02223,-0.03355
0.03871,0.16498,0.19666,9.80130,0.23992,0.01806,-0.04083
0.03075,0.16068,0.20758,9.78063,0.22939,0.03024,0.00701
0.02249,0.16658,0.18287,9.81410,0.25008,-0.01484,-0.04624
0.01999,0.15913,0.21797,9.80689,0.23511,0.00084,-0.00868
0.02250,0.16440,0.20935,9.85472,0.25222,0.00318,0.01009
0.07017,0.15299,0.19641,9.81377,0.21357,-0.02311,0.00590
0.00255,0.17217,0.19496,9.82875,0.24435,0.01365,0.01005
0.04585,0.18356,0.20393,9.76087,0.24393,-0.00997,0.03017
0.03686,0.16521,0.19039,9.79947,0.24442,-0.01068,0.02862
0.01235,0.13980,0.20675,9.80368,0.30254,-0.00186,0.02660
0.04812,0.17127,0.19585,9.76694,0.23167,0.02098,0.02557
0.03419,0.16407,0.20051,9.80431,0.24294,-0.02761,0.01647
0.00874,0.16514,0.20100,9.80960,0.25952,0.01975,0.00016
0.07776,0.16151,0.18749,9.81085,0.24084,-0.00264,-0.03962
0.03966,0.16361,0.19173,9.84460,0.26672,-0.00488,0.01683
0.05446,0.16903,0.18571,9.83288,0.20829,-0.01245,0.02239
0.04824,0.16418,0.19747,9.82123,0.24467,0.00900,-0.00747
0.02162,0.17330,0.19198,9.77974,0.24668,-0.01558,-0.00290
0.03093,0.15022,0.18883,9.82077,0.26394,-0.01501,0.00734
0.02407,0.16390,0.20320,9.81197,0.24598,0.00799,0.00954
0.01265,0.15354,0.19816,9.83107,0.26144,0.01656,0.03820
0.01135,0.17121,0.19015,9.81312,0.24676,0.00709,0.00042
-0.01210,0.16204,0.20751,9.83625,0.24244,-0.03619,-0.01267
0.01795,0.17542,0.20472,9.79315,0.26380,-0.01540,0.03798
0.05698,0.14826,0.19681,9.81938,0.21820,-0.00737,-0.00694
0.06458,0.19564,0.21499,9.80367,0.26125,0.01495,0.02133
0.04334,0.15729,0.18348,9.80782,0.29017,0.00639,-0.00383
0.01244,0.17623,0.19524,9.83184,0.27060,-0.02509,-0.01741
0.01060,0.16640,0.19995,9.78131,0.22802,0.04228,-0.01685
0.04510,0.17651,0.18808,9.80592,0.22879,0.01044,-0.02729
0.01860,0.17114,0.20252,9.78613,0.22576,0.04074,0.01013
0.02753,0.18891,0.21574,9.78965,0.28149,0.00468,-0.00531
0.04508,0.17128,0.19270,9.81730,0.23675,0.02136,-0.00349
0.03725,0.18347,0.19304,9.79978,0.25331,0.03619,-0.00192
0.00731,0.17873,0.18611,9.81935,0.25860,-0.01079,-0.00046
0.04406,0.17225,0.20361,9.84541,0.25168,-0.01295,-0.04307
0.04823,0.17150,0.21535,9.78160,0.24262,0.00355,0.00350
0.01579,0.17119,0.20606,9.79067,0.23625,0.00968,0.02621
0.01520,0.17289,0.20656,9.82356,0.26524,0.03850,-0.00863
0.02747,0.16831,0.19520,9.81217,0.24917,-0.03355,0.04398
0.03688,0.17475,0.19611,9.80946,0.27859,-0.01784,0.04911
0.01703,0.18065,0.19244,9.82240,0.21273,0.00625,0.00906
0.00010,0.16185,0.19579,9.82071,0.22574,-0.01648,-0.02190
0.02961,0.17920,0.21111,9.80791,0.25162,-0.01190,-0.01022
-0.01701,0.18731,0.21061,9.83923,0.21998,0.00875,-0.02562
0.02134,0.16317,0.17745,9.75270,0.23980,0.02079,-0.00410
0.03971,0.17220,0.19397,9.80792,0.22672,-0.03423,-0.00757
0.03098,0.16792,0.20761,9.77835,0.24949,-0.00886,0.00856
0.02878,0.18486,0.18094,9.82232,0.26774,-0.00443,0.00743
0.02504,0.17059,0.19889,9.79257,0.23880,0.01665,0.01340
0.02285,0.15873,0.18470,9.84784,0.25778,-0.04021,-0.00012
0.02446,0.18308,0.20005,9.80138,0.24564,0.01953,-0.03948
0.01033,0.17384,0.21122,9.81418,0.21631,-0.00848,-0.00915
0.05002,0.18087,0.19714,9.79788,0.24088,-0.02310,0.00073
0.02488,0.17421,0.18914,9.82920,0.23423,0.01297,0.00313
0.04376,0.18215,0.19993,9.79873,0.22573,-0.02515,0.00023
0.05609,0.18852,0.20379,9.79974,0.23152,0.00753,-0.01505
0.01998,0.16876,0.18569,9.84563,0.25594,-0.00052,0.01536
0.00969,0.20367,0.18947,9.79817,0.24555,-0.00152,-0.01050
0.02674,0.17959,0.18693,9.83156,0.27683,0.00952,-0.00090
0.04118,0.19792,0.19612,9.80773,0.23347,-0.00768,-0.01930
0.00472,0.18025,0.20542,9.83529,0.22490,-0.01236,-0.01553
-0.00195,0.17966,0.19324,9.81457,0.22794,-0.00195,-0.00982
0.02887,0.18842,0.19900,9.82485,0.22260,-0.00195,-0.00483
0.00016,0.17784,0.19672,9.82636,0.22829,0.02984,0.00051
0.05738,0.17224,0.19912,9.81700,0.20332,-0.00236,0.01237
0.03107,0.19375,0.19594,9.80106,0.23705,0.00259,0.00505
0.02923,0.17754,0.19620,9.80109,0.23503,-0.00612,0.01765
-0.00354,0.17940,0.20488,9.78039,0.20598,0.03065,0.02026
-0.02109,0.20142,0.19514,9.82956,0.25534,-0.02894,-0.02120
-0.01035,0.18568,0.19320,9.82102,0.22967,-0.02310,0.01346
0.03357,0.18150,0.18960,9.82292,0.26342,0.00547,0.02845
-0.02683,0.19185,0.19410,9.80479,0.23649,-0.00127,0.01733
0.02119,0.17256,0.18500,9.79805,0.26243,-0.00412,-0.01282
0.05671,0.20044,0.20472,9.81016,0.25107,-0.00881,-0.01764
-0.01525,0.17799,0.20993,9.81966,0.25381,0.03242,0.02410
-0.01512,0.18158,0.19679,9.81632,0.23085,0.00490,0.02830
0.02918,0.20039,0.19983,9.78932,0.24527,-0.01707,0.01723
0.05052,0.19795,0.20257,9.80965,0.23132,0.02291,0.01472
0.02556,0.20129,0.20035,9.83875,0.24924,-0.00583,0.01339
0.03338,0.17750,0.19121,9.78115,0.23577,-0.00209,-0.00962
0.04101,0.19977,0.20875,9.76471,0.22422,0.02346,-0.00182
0.01408,0.20122,0.20858,9.80831,0.22089,-0.00989,-0.00827
0.02562,0.19837,0.19941,9.77885,0.24608,0.01296,0.03414
0.01570,0.19336,0.18545,9.78279,0.18767,0.01559,0.01760
0.07555,0.19923,0.20235,9.79051,0.18432,-0.00236,0.01161
0.06050,0.19940,0.20341,9.77659,0.20459,-0.01970,-0.00051
0.07367,0.18435,0.19244,9.86092,0.25032,-0.00405,0.01380
0.05134,0.19317,0.18780,9.79808,0.19055,-0.01111,-0.04549
0.04248,0.20693,0.19389,9.82781,0.20167,-0.04985,-0.02961
-0.01069,0.19093,0.18791,9.82395,0.24018,-0.02581,0.00320
0.00618,0.20253,0.20065,9.79622,0.24837,-0.02977,-0.00448
0.01872,0.19145,0.19032,9.81001,0.21535,-0.00346,0.01479
0.03408,0.18722,0.19622,9.80488,0.23053,-0.00856,0.02216
0.01676,0.19474,0.18332,9.81273,0.26151,0.00497,-0.01570
0.05266,0.19129,0.22241,9.79534,0.21655,0.02341,0.01517
0.03486,0.19995,0.17629,9.83121,0.18737,-0.00812,-0.02772
0.01161,0.19247,0.20033,9.75906,0.22223,0.01202,-0.00528
0.00848,0.18705,0.19525,9.78702,0.23642,0.01812,0.01932
0.00740,0.21085,0.19933,9.81955,0.22219,0.00580,0.02520
0.02346,0.18442,0.19684,9.78801,0.25197,-0.00583,0.01284
0.04210,0.20271,0.18533,9.82251,0.23626,0.00772,0.00410
0.04331,0.20142,0.21242,9.74375,0.21124,0.02517,-0.05042
0.00467,0.18899,0.20740,9.79442,0.18719,-0.03485,-0.00724
0.02644,0.20811,0.19266,9.79421,0.21939,0.03155,-0.01965
0.03333,0.18890,0.21657,9.82163,0.23164,0.02247,0.01147
0.03982,0.19833,0.19569,9.83731,0.23475,0.00591,-0.03958
0.04746,0.20740,0.18796,9.75770,0.22707,-0.02848,0.03081
0.00736,0.19151,0.19823,9.81570,0.22570,0.00701,-0.02458
0.03442,0.20820,0.18518,9.82825,0.21852,0.00151,-0.01147
0.01232,0.18851,0.18455,9.78331,0.20565,0.04119,0.02021
0.02208,0.19297,0.21048,9.82761,0.20272,0.00765,-0.01206
0.01181,0.20808,0.20342,9.81739,0.19692,0.01081,-0.00277
0.06587,0.19275,0.19463,9.79083,0.24475,-0.00793,-0.00965
0.01167,0.19204,0.18878,9.82611,0.21472,-0.00046,-0.04325
0.00073,0.21009,0.18995,9.80907,0.22690,0.03731,0.00434
0.05088,0.21461,0.18021,9.86859,0.19314,-0.02452,0.00609
0.03201,0.20512,0.19406,9.78716,0.21424,0.00915,-0.00514
0.02598,0.21067,0.19068,9.78364,0.22746,-0.00908,0.02489
0.02047,0.21048,0.19491,9.81086,0.21903,0.01415,-0.00137
0.01884,0.21506,0.20793,9.82605,0.20289,-0.01078,0.01324
0.04384,0.21680,0.20656,9.77683,0.23390,0.01917,-0.00346
0.05886,0.20666,0.19664,9.80497,0.21749,-0.01775,-0.01003
0.05377,0.19823,0.16058,9.79030,0.18337,0.00603,-0.00946
0.04878,0.20473,0.18748,9.78668,0.22233,-0.01883,0.01427
0.05581,0.19113,0.19117,9.80209,0.19509,-0.00193,0.02099
0.07878,0.22225,0.19241,9.79125,0.21837,0.00450,0.02269
0.01285,0.20876,0.20154,9.85206,0.20160,0.01724,-0.00592
0.04615,0.19993,0.20961,9.77271,0.21073,0.00795,-0.01346
0.04474,0.22019,0.18601,9.83180,0.22778,-0.02072,-0.03110
0.06107,0.19547,0.21170,9.78713,0.21700,-0.01873,-0.01438
0.02322,0.21138,0.19135,9.79919,0.22211,0.01750,-0.00205
0.01208,0.21424,0.18082,9.78732,0.21710,0.00290,0.01150
0.04588,0.20900,0.19029,9.80472,0.21024,-0.00411,-0.00610
0.01977,0.21963,0.21839,9.78910,0.19874,0.03167,0.00372
0.03309,0.21338,0.16576,9.82971,0.22168,-0.00906,0.01311
0.01512,0.21228,0.18983,9.80157,0.19991,-0.00296,-0.01808
0.01643,0.20600,0.19194,9.81632,0.22449,0.03787,-0.02086
0.01892,0.21957,0.20200,9.80576,0.20874,0.00500,-0.02313
0.00802,0.21113,0.18059,9.78730,0.23968,-0.02083,-0.01438
0.00652,0.22270,0.19881,9.81463,0.24751,0.00482,-0.01899
0.03084,0.19429,0.19400,9.80143,0.22665,0.01698,0.00434
0.06285,0.21885,0.18831,9.82175,0.24028,0.00644,-0.02547
0.04767,0.21250,0.19214,9.79389,0.20328,0.00883,-0.00887
0.02818,0.20371,0.19985,9.80517,0.24029,0.00065,-0.02064
0.01940,0.21355,0.18823,9.80482,0.20372,0.01722,-0.00901
0.00929,0.20385,0.18144,9.78072,0.22000,0.00731,0.01182
0.01367,0.22388,0.19029,9.78039,0.23695,0.04377,0.00874
0.01965,0.22301,0.19059,9.82303,0.21466,0.00486,0.00267
0.05399,0.21243,0.17974,9.80585,0.16927,-0.02775,0.01221
0.00231,0.21847,0.20932,9.81546,0.19295,0.02646,0.00567
0.03188,0.22047,0.20255,9.81332,0.21980,0.00002,0.03478
0.02490,0.20423,0.20347,9.77752,0.20412,0.00790,0.00363
0.04487,0.19558,0.18046,9.85196,0.20289,0.02693,0.01574
0.07556,0.21466,0.20551,9.81608,0.21188,-0.01331,0.04662
0.07846,0.21020,0.20035,9.78587,0.18886,-0.04886,-0.03162
0.02447,0.22676,0.19261,9.78421,0.21289,0.00980,0.00170
-0.02582,0.19243,0.19206,9.79704,0.18603,0.04569,-0.00278
0.03968,0.21668,0.19967,9.79289,0.17279,0.04112,0.02129
0.00362,0.23382,0.19234,9.85815,0.18746,-0.04006,-0.01335
0.03715,0.22201,0.19034,9.81443,0.21952,-0.00856,-0.00790
0.04452,0.21036,0.18807,9.78639,0.20691,-0.02488,0.02215
0.03964,0.18886,0.19659,9.84216,0.18003,-0.05759,0.00333
0.03980,0.22517,0.19222,9.80691,0.21094,-0.02173,-0.02286
0.02082,0.21611,0.18946,9.84062,0.19909,-0.02962,0.00759
0.02179,0.23162,0.18887,9.83451,0.20176,0.02518,0.00182
0.05590,0.21132,0.20391,9.81763,0.23306,-0.02729,0.02822
0.02791,0.22425,0.18872,9.80339,0.21544,0.00931,0.00190
0.04762,0.23516,0.21518,9.83136,0.23148,0.01047,0.02108
0.05897,0.21029,0.19187,9.77551,0.19396,0.02444,-0.01836
0.02738,0.23743,0.20184,9.78211,0.20570,-0.01717,0.00559
-0.01723,0.21211,0.19497,9.81400,0.23030,0.02775,0.01297
0.02922,0.21733,0.19006,9.81355,0.18246,-0.01073,-0.02048
0.05216,0.21504,0.19183,9.83753,0.20794,0.00956,0.00644
0.01697,0.20411,0.18657,9.82072,0.20531,0.00238,0.01730
0.02059,0.23622,0.19357,9.83151,0.21217,-0.01442,-0.04435
0.00046,0.22310,0.19698,9.80590,0.17028,0.02891,-0.01136
0.02205,0.22657,0.21390,9.82603,0.19469,-0.00139,-0.02716
0.03802,0.22238,0.20076,9.78656,0.16434,-0.00550,0.01404
0.01609,0.21935,0.19623,9.80591,0.17788,-0.03397,-0.01035
0.06450,0.21572,0.19293,9.76029,0.21599,-0.00403,-0.01181
0.01360,0.21332,0.18372,9.80047,0.18667,-0.01323,-0.01428
0.05955,0.21513,0.19832,9.80895,0.21431,0.03676,0.00002
0.02792,0.23370,0.21746,9.81236,0.21850,-0.00745,0.02119
0.02500,0.22479,0.19608,9.79556,0.21131,-0.01861,-0.00744
0.01829,0.21505,0.18923,9.82081,0.18319,0.00695,0.00400
-0.00448,0.22198,0.18736,9.80838,0.15956,-0.03347,0.02040
0.01346,0.23935,0.18896,9.79925,0.18630,-0.00899,0.00633
0.03182,0.22767,0.19911,9.80619,0.22666,-0.00209,-0.01441
0.00124,0.22652,0.18805,9.84320,0.21716,-0.00029,0.00461
0.02300,0.22969,0.19379,9.81124,0.18688,-0.01284,0.00244
0.05564,0.20962,0.20711,9.83371,0.19434,0.03435,-0.03064
0.02748,0.21039,0.19896,9.75376,0.18624,-0.02981,0.00514
0.01188,0.23996,0.21748,9.82233,0.17824,-0.00200,-0.00858
0.03145,0.23222,0.18945,9.83148,0.21148,-0.00546,0.01080
0.04906,0.23998,0.19766,9.81033,0.19742,-0.02221,-0.01586
0.00673,0.23062,0.19838,9.77603,0.16096,0.02801,-0.00053
-0.00233,0.21626,0.19604,9.79998,0.19810,0.05623,0.00807
0.00652,0.22274,0.19715,9.80298,0.17411,0.02836,0.03205
0.01412,0.23230,0.19256,9.79774,0.19840,0.01704,-0.00177
0.02399,0.24032,0.18816,9.82054,0.19573,-0.00443,0.01500
0.05453,0.22975,0.19001,9.81883,0.22966,0.00463,0.00240
0.02205,0.22320,0.18420,9.79147,0.20597,-0.02532,0.00039
0.02078,0.24311,0.20398,9.82557,0.22447,0.01545,0.02788
0.05067,0.22601,0.19503,9.77568,0.17299,-0.01336,-0.02046
0.03533,0.24039,0.19158,9.80526,0.20143,-0.00581,-0.04194
0.01967,0.23225,0.19123,9.76590,0.17185,-0.01658,0.00967
0.04327,0.22439,0.19827,9.81193,0.17232,0.04538,0.00876
0.03454,0.22536,0.19328,9.79508,0.18546,-0.00886,-0.00890
0.02934,0.23440,0.18848,9.79560,0.15897,0.00759,0.00895
0.01230,0.22489,0.19979,9.84921,0.24745,-0.01746,0.00653
0.04215,0.23209,0.18275,9.83453,0.15767,0.01359,-0.02000
0.00521,0.23510,0.17179,9.80869,0.23753,-0.01903,0.00652
0.06355,0.23170,0.16299,9.80300,0.18069,0.01601,0.00692
0.05439,0.24010,0.18071,9.80588,0.21079,-0.04280,-0.01581
0.03787,0.23591,0.20063,9.82462,0.17269,-0.00719,0.00329
0.01885,0.24815,0.18642,9.80414,0.14998,0.01741,0.03308
-0.00305,0.22421,0.18745,9.80048,0.18146,-0.02602,0.00598
0.04134,0.22391,0.20947,9.77517,0.20439,0.00980,-0.01047
0.03216,0.23392,0.19609,9.79065,0.18191,0.00546,-0.01103
0.02725,0.23570,0.19756,9.80769,0.16365,-0.02534,0.00901
0.03303,0.24354,0.19019,9.81656,0.20574,0.01291,0.01923
0.02371,0.21843,0.19417,9.81735,0.19062,-0.02155,-0.00842
0.04376,0.24900,0.19368,9.79502,0.21356,0.01507,-0.02022
0.05836,0.23127,0.18509,9.79981,0.19634,-0.00368,-0.00246
0.05174,0.23543,0.20511,9.80866,0.18532,0.00481,0.00554
0.01407,0.23773,0.17476,9.81510,0.18560,0.04339,-0.01442
0.04248,0.23556,0.19262,9.80088,0.17680,0.00132,0.00633
0.04515,0.22968,0.19316,9.77782,0.18395,0.01955,0.02404
-0.01004,0.23026,0.20016,9.81330,0.17264,0.03449,-0.00487
0.03018,0.24779,0.19478,9.80478,0.21850,-0.02140,-0.03376
0.03505,0.22744,0.19540,9.82944,0.18843,-0.00134,-0.01605
0.06775,0.24302,0.20509,9.76590,0.19091,0.01494,0.00203
0.02086,0.24736,0.19931,9.82540,0.16187,0.02247,0.00479
0.08517,0.24429,0.18123,9.84042,0.14919,0.00194,-0.00449
0.02948,0.24488,0.20587,9.79239,0.19457,0.01029,0.02670
0.02702,0.24057,0.20152,9.84047,0.22097,0.01508,-0.00960
0.03420,0.24505,0.17682,9.80078,0.18827,-0.01307,-0.00678
-0.00434,0.26733,0.19341,9.83847,0.21349,0.01516,-0.00870
0.04124,0.23874,0.18566,9.84750,0.17145,-0.03371,0.01509
0.01319,0.21878,0.20229,9.84661,0.14723,-0.00518,0.03437
0.03172,0.25642,0.18810,9.79980,0.16235,-0.00593,0.00341
0.05609,0.23682,0.18357,9.78275,0.17479,-0.00458,-0.01881
0.02970,0.24169,0.19498,9.81480,0.17512,-0.00346,-0.00257
0.05776,0.25846,0.19283,9.85188,0.19290,0.04002,-0.00362
0.01967,0.25179,0.19426,9.83037,0.20553,0.00847,-0.01266
0.04518,0.24156,0.18064,9.76966,0.16721,0.00558,-0.02360
0.03129,0.23985,0.20612,9.80937,0.14743,0.01988,-0.02253
0.02537,0.25063,0.19655,9.79633,0.18308,0.01043,-0.01965
0.02260,0.24080,0.18850,9.80882,0.18305,-0.01922,-0.00168
0.02870,0.25752,0.18812,9.82363,0.18764,-0.01196,0.00381
0.02958,0.23698,0.18670,9.81426,0.15612,-0.04072,0.00917
-0.01178,0.25201,0.20115,9.79413,0.18982,-0.02641,0.02356
0.04890,0.24101,0.18144,9.83332,0.19295,-0.01353,-0.00614
0.03145,0.25111,0.20817,9.79494,0.17890,0.00254,-0.02160
0.04165,0.24813,0.19800,9.83670,0.16975,0.02215,0.01540
-0.00458,0.25027,0.18896,9.79072,0.15775,-0.00687,0.00435
0.03384,0.25765,0.18458,9.79254,0.17229,-0.00564,0.01737
0.03946,0.25433,0.18210,9.81884,0.15469,0.00556,-0.00304
0.04052,0.25903,0.18213,9.79029,0.13952,-0.01977,0.00971
0.05216,0.24986,0.19202,9.80415,0.18650,-0.00542,0.00516
0.01200,0.24350,0.20407,9.83305,0.16410,0.02419,-0.03049
0.02860,0.25886,0.20409,9.76931,0.12467,-0.03039,0.00313
0.05941,0.24590,0.18706,9.79898,0.10275,-0.01035,-0.00640
0.04026,0.23283,0.19206,9.79742,0.16726,-0.02427,-0.01993
0.04878,0.24714,0.19027,9.80289,0.18700,-0.02926,0.02068
0.02488,0.23414,0.18851,9.82337,0.16684,-0.00698,0.03465
0.00655,0.24725,0.20898,9.81117,0.14806,0.02696,-0.00363
0.01703,0.24347,0.20170,9.78916,0.12575,0.00843,-0.02755
0.00002,0.23300,0.18495,9.80584,0.16909,-0.02021,-0.00177
-0.01395,0.24701,0.18513,9.79668,0.16126,-0.01414,-0.03295
0.00961,0.26965,0.19324,9.81494,0.19184,-0.00288,0.01427
0.00493,0.23235,0.18245,9.81030,0.13226,-0.00200,0.00466
0.01269,0.24926,0.17027,9.82460,0.16671,0.01659,0.02670
0.06106,0.25863,0.18807,9.83268,0.16632,-0.01299,-0.00000
0.04003,0.23751,0.19456,9.79902,0.18808,-0.02680,0.02781
0.00757,0.24810,0.18271,9.80450,0.13826,0.04640,0.00120
0.02853,0.24772,0.19064,9.81127,0.13245,-0.00378,-0.01004
0.04862,0.25721,0.18811,9.81569,0.17620,-0.00908,0.01957
0.02798,0.25705,0.20752,9.81267,0.14720,-0.00120,-0.01032
0.03340,0.24853,0.18578,9.81025,0.16804,-0.01378,-0.01188
0.04375,0.25931,0.19146,9.80155,0.17985,0.00699,0.01162
0.05708,0.25932,0.18029,9.79711,0.14800,0.01299,-0.02880
-0.01763,0.24594,0.19397,9.78762,0.18392,0.02697,0.01968
0.01780,0.24551,0.17913,9.79582,0.16189,0.00651,0.03920
0.05055,0.24686,0.18894,9.78188,0.16834,-0.04016,-0.00475
0.03069,0.24568,0.20247,9.82632,0.18799,-0.00827,-0.00637
0.03279,0.23627,0.18687,9.83573,0.16405,-0.02380,-0.01678
0.04568,0.22699,0.18549,9.79640,0.16933,0.01045,-0.02462
0.00620,0.25996,0.18644,9.80595,0.15255,-0.00687,0.02371
0.01860,0.24392,0.18738,9.77504,0.14374,0.02236,0.04469
0.04554,0.26507,0.19477,9.79066,0.12658,0.00105,0.03106
0.06147,0.26540,0.18533,9.82127,0.15556,0.01457,0.01985
0.01505,0.25086,0.18980,9.79414,0.11516,-0.01890,-0.01611
0.07318,0.26333,0.19243,9.81216,0.15609,0.02028,-0.00173
0.01356,0.26366,0.19027,9.80800,0.14362,-0.03550,-0.02519
0.07172,0.25611,0.20890,9.79622,0.16472,-0.01453,0.01317
0.01949,0.24522,0.19712,9.82824,0.18758,-0.01749,0.03912
0.09210,0.25770,0.19626,9.84182,0.15627,-0.02135,0.00179
0.06942,0.26264,0.18384,9.82113,0.15931,-0.02643,-0.01124
0.03595,0.24524,0.18984,9.80212,0.16242,-0.02080,-0.01605
0.04237,0.26759,0.18270,9.82336,0.11480,0.04105,-0.02842
0.00542,0.24084,0.19511,9.83034,0.17675,0.05707,-0.00591
0.03049,0.25717,0.19663,9.80451,0.11867,0.00567,0.00782
0.03203,0.25909,0.18504,9.82735,0.15665,0.00401,-0.02214
-0.00155,0.25987,0.17093,9.83422,0.15520,-0.01577,0.04416
0.04745,0.25511,0.18054,9.83098,0.15839,0.00317,0.00569
0.05483,0.24415,0.19232,9.81808,0.11042,-0.00137,-0.00186
0.03393,0.25848,0.19194,9.81947,0.15704,-0.00960,-0.00624
0.03393,0.25038,0.18974,9.78806,0.16079,-0.03791,-0.00463
0.02636,0.26317,0.19090,9.74646,0.14985,0.00188,-0.01462
0.01927,0.25286,0.19232,9.79169,0.12679,-0.02617,0.00904
0.03503,0.25307,0.20892,9.81038,0.12275,-0.02277,0.02144
0.05398,0.27453,0.21603,9.81341,0.11841,0.00952,0.02944
0.00902,0.27115,0.18615,9.83046,0.14081,0.03441,-0.01947
0.02407,0.26351,0.18754,9.79357,0.15100,-0.03291,-0.00262
-0.00568,0.25122,0.20622,9.82074,0.16855,-0.01760,-0.03340
0.02302,0.26213,0.18652,9.81469,0.14263,0.01281,0.00869
0.04446,0.24914,0.17732,9.83715,0.13621,-0.00263,-0.00976
0.06072,0.27052,0.20358,9.79480,0.18618,-0.00872,-0.00512
0.01460,0.27323,0.18755,9.82423,0.13660,-0.03877,0.01915
0.03281,0.26563,0.20859,9.82554,0.13037,0.01208,0.04640
0.04133,0.24970,0.19734,9.83474,0.13137,0.01012,0.02097
0.02096,0.25377,0.17937,9.77539,0.14086,-0.00912,0.02335
0.03403,0.24088,0.20017,9.82698,0.16547,0.02697,-0.01210
0.00961,0.24056,0.18232,9.79912,0.16364,-0.00856,-0.03549
0.05351,0.26414,0.18089,9.85965,0.14266,0.00950,-0.02088
0.04933,0.25786,0.18883,9.79159,0.10716,-0.03731,0.02083
0.05717,0.27153,0.19840,9.81299,0.11206,0.00252,0.00507
0.03770,0.27642,0.20424,9.79291,0.13504,0.00651,-0.02190
-0.00496,0.26783,0.20794,9.79066,0.12718,0.02302,0.00962
-0.01283,0.25845,0.16155,9.83074,0.14616,0.00157,0.00139
0.01279,0.26788,0.17909,9.78091,0.14691,0.00799,-0.00807
0.03726,0.26163,0.20214,9.83263,0.09471,0.00805,0.02981
0.02774,0.26459,0.19578,9.79747,0.17155,-0.01178,0.00333
0.03665,0.25898,0.17503,9.81064,0.14452,0.03552,-0.03268
0.06081,0.25966,0.18496,9.83590,0.13350,0.02475,0.02891
0.04119,0.25036,0.19032,9.81872,0.15012,0.01606,-0.00841
0.00420,0.26650,0.19161,9.84138,0.15940,-0.02638,-0.02251
0.01322,0.26422,0.19475,9.81781,0.11203,-0.03405,-0.03139
0.05642,0.26193,0.18653,9.79447,0.11704,-0.04015,0.02477
0.04557,0.26602,0.16837,9.81003,0.11099,-0.02504,-0.00110
0.02363,0.27384,0.20114,9.82563,0.14566,0.00174,-0.02485
0.02532,0.25039,0.19177,9.82294,0.14329,-0.02912,0.02224
0.01584,0.26373,0.19024,9.79995,0.12116,-0.01654,0.00720
0.03947,0.26238,0.19146,9.76458,0.14943,0.03136,-0.00989
0.04278,0.26316,0.17963,9.80388,0.14508,-0.00788,-0.01591
0.03419,0.26979,0.19125,9.76973,0.12281,0.00995,-0.02264
0.04589,0.28002,0.21091,9.79099,0.13793,0.02089,0.02412
0.04725,0.26513,0.20349,9.83201,0.14207,0.00397,0.01321
0.00235,0.25479,0.21013,9.78192,0.11016,-0.01780,-0.02097
0.05871,0.26289,0.20965,9.83039,0.06531,0.00447,-0.03196
0.00264,0.26471,0.17656,9.81037,0.14852,-0.03703,-0.02020
0.04824,0.27747,0.22073,9.81179,0.15213,0.00562,0.00061
0.02574,0.24942,0.19505,9.81951,0.11008,0.00152,0.02553
0.00978,0.24304,0.19835,9.82240,0.12421,-0.00698,-0.01692
0.03826,0.27795,0.17979,9.83177,0.13238,0.00557,-0.04034
0.03193,0.25842,0.17889,9.81630,0.13348,-0.00589,0.01411
0.00481,0.26085,0.19625,9.83359,0.11985,0.00971,-0.03384
0.04133,0.25702,0.21537,9.82628,0.10865,-0.03725,0.01463
0.04583,0.26420,0.19731,9.80305,0.12462,-0.00342,-0.01310
0.04514,0.27341,0.16921,9.81638,0.08258,-0.02440,0.00826
0.05378,0.26396,0.19895,9.80316,0.11186,0.01697,0.00714
0.01950,0.26804,0.18887,9.78083,0.10975,-0.00341,-0.02601
0.01865,0.27767,0.17044,9.84865,0.14251,-0.00789,0.00214
0.02998,0.29360,0.19882,9.82020,0.11752,-0.02214,0.01715
0.01667,0.26238,0.21806,9.79972,0.12200,-0.01237,0.01779
0.03248,0.27314,0.19763,9.79951,0.15153,-0.00933,-0.01558
0.04404,0.26365,0.20448,9.79741,0.08759,-0.01603,0.00574
0.02196,0.26407,0.19185,9.83297,0.15715,-0.00627,0.01785
0.03415,0.28161,0.21221,9.80610,0.10710,0.03770,-0.00641
0.02999,0.26541,0.19277,9.81578,0.11837,0.00950,-0.00083
0.04462,0.27911,0.19443,9.79926,0.13822,-0.01154,-0.00295
0.04192,0.26589,0.18692,9.81004,0.10477,0.00458,0.03275
0.04515,0.26331,0.20616,9.79367,0.12400,0.05275,-0.01936
0.04776,0.28144,0.20151,9.79807,0.10877,-0.03010,0.00887
0.02510,0.26770,0.20197,9.82175,0.10215,0.00562,0.00369
0.02197,0.26795,0.19991,9.80365,0.14463,0.00351,-0.02811
0.02765,0.26512,0.19199,9.79874,0.14441,0.04100,-0.01523
0.04929,0.28758,0.18587,9.82411,0.11512,0.01817,0.04033
0.01189,0.27054,0.18172,9.84605,0.11703,-0.00870,0.03514
0.00630,0.28203,0.20095,9.83045,0.12998,0.00703,-0.03970
0.05099,0.29562,0.20268,9.81033,0.10924,-0.03736,0.02389
-0.00213,0.26717,0.19261,9.79915,0.12509,0.01805,-0.00554
0.03784,0.27707,0.18508,9.78921,0.10886,0.00138,0.00023
0.05936,0.26776,0.17806,9.81500,0.13278,-0.01297,-0.03048
0.02390,0.27900,0.19789,9.81743,0.11585,-0.00073,-0.02637
0.05101,0.26293,0.17717,9.81462,0.13320,0.01637,-0.03440
0.00229,0.28165,0.19553,9.81779,0.10777,0.00827,0.01365
0.04356,0.26871,0.18932,9.83380,0.13693,-0.00936,0.00131
0.00518,0.27401,0.17983,9.83605,0.08746,-0.00673,-0.01553
0.03217,0.26982,0.17603,9.79205,0.13802,0.00196,-0.01609
0.04170,0.27808,0.18987,9.81798,0.12517,0.01609,0.03950
0.04536,0.26367,0.17993,9.80493,0.11345,-0.00983,-0.00773
0.04152,0.28462,0.18703,9.80284,0.13020,0.01717,-0.03833
0.03449,0.26554,0.19171,9.80532,0.11779,-0.01303,0.00689
0.01312,0.27855,0.19604,9.83698,0.12628,0.00171,-0.00786
0.03851,0.27205,0.20612,9.83225,0.10435,-0.00059,0.01121
0.02737,0.26687,0.17772,9.81908,0.06684,0.01190,0.04135
0.01535,0.27883,0.20578,9.77069,0.12798,-0.00585,0.01256
0.05680,0.27616,0.20524,9.83134,0.12532,0.01394,0.00123
0.01218,0.29677,0.16602,9.79754,0.12086,0.00807,-0.03136
0.02517,0.26672,0.18651,9.82219,0.10581,-0.01196,0.01546
0.02280,0.28084,0.19735,9.80901,0.11700,0.00691,0.00241
0.00057,0.28478,0.19447,9.82220,0.11910,-0.01397,-0.01020
0.02043,0.28070,0.18725,9.84806,0.11065,0.00704,0.01231
0.01627,0.29217,0.22517,9.80058,0.10786,-0.02713,0.01113
0.03012,0.28457,0.18829,9.80501,0.15616,-0.02497,0.04995
0.04667,0.25151,0.17501,9.83736,0.13309,-0.00251,-0.01596
0.02250,0.27303,0.19571,9.78214,0.08763,0.01333,-0.01623
0.01724,0.27404,0.20898,9.82183,0.11514,-0.02814,0.00048
0.02438,0.27921,0.20585,9.82252,0.12450,-0.00343,-0.00495
0.02326,0.28072,0.19442,9.81035,0.07055,0.00356,-0.01295
0.01931,0.27808,0.18114,9.84297,0.05699,-0.01426,0.02080
0.04663,0.27129,0.19793,9.79418,0.11939,0.02497,0.00523
0.03057,0.29270,0.18675,9.81058,0.09845,-0.02259,0.02318
0.05383,0.27292,0.18014,9.77119,0.10887,-0.01991,-0.00084
0.05708,0.27570,0.17550,9.85408,0.10046,0.00432,0.03657
0.03612,0.27826,0.18976,9.82418,0.09054,0.01507,0.01057
0.00823,0.29037,0.19230,9.83890,0.06491,-0.02413,0.01563
0.03195,0.28750,0.19317,9.77129,0.11088,-0.03918,-0.01785
0.01413,0.26628,0.20177,9.80826,0.08061,0.01658,0.00329
0.02668,0.27291,0.20220,9.81170,0.08215,-0.01427,-0.01255
-0.01069,0.27951,0.19648,9.77272,0.08380,-0.00368,0.06386
0.04672,0.28178,0.20833,9.84231,0.12046,0.01501,0.01016
0.02420,0.26866,0.19649,9.84451,0.08912,-0.01381,0.00711
0.01112,0.28272,0.20167,9.79446,0.08298,0.00106,-0.01258
0.00404,0.26066,0.18589,9.80357,0.13007,-0.00776,-0.04606
0.04058,0.26700,0.18073,9.78636,0.10808,-0.01700,-0.01738
0.03277,0.28460,0.18866,9.79448,0.08108,0.00692,0.00352
0.01472,0.26429,0.20173,9.80064,0.08450,-0.01642,-0.01212
0.02377,0.28734,0.19719,9.79024,0.07637,-0.00786,-0.00331
0.01540,0.28553,0.19782,9.81968,0.06816,0.01755,0.03498
0.03992,0.28079,0.19462,9.80353,0.06312,-0.02395,0.01658
0.01394,0.27836,0.18832,9.84008,0.08372,0.00619,0.00753
0.05921,0.27593,0.20359,9.76700,0.10834,-0.00635,0.01104
0.00888,0.28416,0.18356,9.79284,0.08400,-0.00015,-0.01467
0.03534,0.28607,0.20250,9.80596,0.09288,0.02668,-0.01935
0.04463,0.27706,0.20152,9.78891,0.04625,0.03416,-0.03231
0.50985,0.26333,0.21778,9.81689,0.06250,-0.02368,-0.02492
0.67390,0.28339,0.18472,9.79373,0.08666,0.01835,-0.00490
0.81628,0.29568,0.19811,9.79453,0.10867,-0.01073,0.01522
0.35203,0.28511,0.18531,9.82036,0.13211,0.02440,-0.01425
0.82982,0.27186,0.21150,9.81848,0.11200,-0.04257,-0.02030
0.80843,0.27799,0.17184,9.82593,0.05673,-0.00756,-0.02253
0.48175,0.27132,0.19102,9.78809,0.09646,0.00112,-0.01776
0.75270,0.28906,0.19949,9.79799,0.07704,0.01019,0.00579
0.64683,0.27899,0.19345,9.77138,0.07518,-0.03263,-0.00964
0.76179,0.28167,0.20706,9.82663,0.05690,0.00656,0.01963
0.44346,0.26596,0.19716,9.80052,0.13113,-0.01451,-0.01691
0.82170,0.28952,0.19075,9.80633,0.07617,-0.01721,0.01233
0.47233,0.28817,0.19654,9.80675,0.08312,-0.02096,0.01927
0.69357,0.29485,0.20253,9.82452,0.12391,0.00330,-0.01615
0.62343,0.29773,0.16537,9.77155,0.08022,0.02943,-0.01786
0.39763,0.28153,0.19934,9.77777,0.05656,-0.02074,0.02219
0.58557,0.28396,0.18496,9.83754,0.07329,-0.02916,-0.00843
0.42220,0.28661,0.19374,9.80272,0.09775,0.05674,-0.03690
0.89003,0.28110,0.19174,9.80390,0.08396,0.02780,-0.00649
0.54150,0.29654,0.18921,9.79641,0.07663,-0.04615,-0.00109
0.83855,0.29056,0.18633,9.80790,0.08816,0.00403,0.02814
0.83005,0.28393,0.16892,9.80159,0.12331,-0.02569,-0.02206
0.44196,0.30386,0.17882,9.86919,0.08377,-0.01141,0.01766
0.75558,0.28985,0.19360,9.81068,0.08770,-0.00201,0.03123
0.60762,0.28393,0.20081,9.81476,0.07602,-0.02229,-0.03864
0.82183,0.28790,0.19483,9.81854,0.07213,0.01171,0.02077
0.48423,0.27646,0.16862,9.78325,0.05531,-0.00423,-0.00692
0.76496,0.27572,0.17297,9.83984,0.08544,-0.00845,-0.01815
0.69052,0.27936,0.19404,9.81677,0.09433,-0.02567,-0.04778
0.67071,0.31166,0.19266,9.78270,0.03880,-0.01471,0.02891
0.76562,0.28191,0.19244,9.81613,0.06821,-0.01387,0.00720
0.87376,0.27805,0.19852,9.83264,0.12530,0.00574,-0.00647
0.82950,0.30043,0.18803,9.84262,0.07250,-0.00835,-0.02125
0.78504,0.28010,0.20579,9.83009,0.09954,0.01182,-0.02086
0.61088,0.27832,0.18198,9.80190,0.07883,-0.03648,-0.01611
0.54161,0.29478,0.19395,9.79612,0.08012,-0.00453,-0.01069
0.58045,0.27718,0.18893,9.83075,0.09546,-0.01255,0.00622
0.85015,0.29278,0.18142,9.80824,0.08198,0.00539,0.00281
0.35664,0.28830,0.18474,9.78803,0.07519,0.01534,0.02061
0.37999,0.28307,0.18628,9.81826,0.09326,0.03545,0.02045
0.45978,0.28076,0.18490,9.78547,0.06967,0.05194,0.00889
0.40174,0.28636,0.17800,9.81656,0.06730,-0.00212,-0.00046
0.38076,0.29676,0.18440,9.77236,0.10021,-0.00579,-0.02767
0.88667,0.27724,0.20309,9.80265,0.05458,-0.00336,0.00978
0.31106,0.28810,0.21105,9.80271,0.08011,0.02798,-0.01261
0.65834,0.28868,0.18528,9.80298,0.09351,-0.00414,0.00068
0.41759,0.29990,0.20258,9.80492,0.08875,-0.02047,0.00782
0.82506,0.28847,0.19197,9.78842,0.04831,0.03854,-0.00500
0.72129,0.28018,0.18863,9.83237,0.04431,0.00233,-0.02304
0.77059,0.27170,0.19276,9.78939,0.06679,-0.00291,0.00663
0.81608,0.29322,0.16791,9.81155,0.05237,0.02539,0.01634
0.41747,0.28365,0.19758,9.81829,0.11258,-0.01443,0.02300
0.79963,0.28338,0.18729,9.84037,0.10576,-0.00946,-0.01513
0.74874,0.29384,0.17317,9.79825,0.05737,-0.00014,-0.02966
0.38597,0.30097,0.19988,9.82229,0.08520,-0.00067,0.00157
0.31689,0.29500,0.18512,9.83038,0.09924,0.00402,-0.00314
0.31306,0.29407,0.19669,9.81980,0.06638,0.01822,-0.00380
0.83151,0.28768,0.19720,9.80116,0.04443,-0.01517,-0.02739
0.83554,0.29262,0.19414,9.80186,0.08797,0.01696,0.00974
0.74662,0.29307,0.19273,9.78229,0.03642,0.00991,-0.00620
0.45311,0.29288,0.19099,9.80091,0.05457,-0.01441,0.02519
0.59306,0.27393,0.20013,9.81107,0.10137,-0.01287,0.01992
0.32781,0.30085,0.18200,9.83271,0.08392,0.02728,-0.01269
0.78786,0.28012,0.19678,9.77218,0.07409,0.00524,-0.01821
0.31958,0.29012,0.19977,9.76500,0.07858,0.00883,0.01191
0.33552,0.28994,0.17679,9.78280,0.02964,0.02642,0.01004
0.71509,0.27895,0.18858,9.82945,0.05199,-0.02304,-0.01103
0.87659,0.29737,0.19185,9.76568,0.05440,-0.00668,-0.02069
0.38920,0.28452,0.18251,9.78475,0.08831,-0.02263,-0.01094
0.48841,0.29825,0.19352,9.80488,0.02887,0.04363,0.04418
0.49151,0.29654,0.17476,9.80550,0.06338,0.00402,0.00773
0.41915,0.29209,0.17551,9.81964,0.05958,0.01797,0.00711
0.67238,0.29222,0.18841,9.80161,0.05021,0.03121,-0.05462
0.79979,0.30271,0.19052,9.83214,0.04213,-0.02632,-0.00559
0.50265,0.30704,0.18814,9.78084,0.05361,-0.02362,0.00027
0.66725,0.29419,0.18291,9.83575,0.07674,0.00391,-0.00729
0.35471,0.28276,0.18234,9.81637,0.03178,-0.00438,-0.01990
0.45584,0.27969,0.19147,9.76699,0.07461,-0.05371,0.00353
0.80071,0.29438,0.19012,9.79978,0.04589,-0.03828,0.01020
0.59336,0.28983,0.16737,9.77643,0.09273,-0.01646,-0.01222
0.36736,0.28919,0.19688,9.82582,0.07319,-0.00096,-0.03526
0.38841,0.28785,0.18969,9.84302,0.02989,0.00794,0.03612
0.60659,0.29704,0.19851,9.79488,0.03213,-0.01145,0.02825
0.56469,0.28814,0.17796,9.81178,0.03118,-0.02121,0.00531
0.58129,0.28417,0.19591,9.78188,0.04209,0.00783,-0.01976
0.89010,0.30343,0.18096,9.78561,0.02208,-0.00692,-0.02512
0.77091,0.27856,0.20047,9.82797,0.06326,0.02598,-0.00584
0.63909,0.29524,0.20190,9.81807,0.04686,0.01159,-0.00491
0.31482,0.28379,0.18558,9.76980,0.01844,0.01245,-0.01587
0.31438,0.29258,0.18968,9.79089,0.06003,0.01111,-0.01349
0.46118,0.29427,0.19407,9.81971,0.05128,0.00866,-0.00715
0.42068,0.28465,0.18548,9.81684,0.05229,-0.01353,0.01120
0.53897,0.30007,0.19370,9.80103,0.06046,0.03193,-0.01999
0.73944,0.28777,0.19458,9.83076,0.05850,-0.01920,0.01269
0.54875,0.31229,0.18822,9.86108,0.04290,-0.01341,-0.03303
0.47095,0.28814,0.19362,9.80113,0.03909,0.01894,-0.00387
0.89615,0.27953,0.17176,9.83030,0.04794,0.00027,-0.03669
0.48183,0.29210,0.19124,9.83097,0.03902,-0.03125,-0.02207
0.51126,0.30322,0.18101,9.79781,0.07932,0.00924,-0.01560
0.53065,0.29585,0.19512,9.79482,0.04177,-0.02499,0.01139
0.86185,0.30576,0.18701,9.82300,0.04730,-0.02196,0.00146
0.56206,0.27896,0.19466,9.84053,0.04952,-0.00078,-0.00102
0.61026,0.28345,0.17312,9.83205,0.03619,-0.03246,-0.03418
0.68111,0.29441,0.19245,9.82472,0.01957,-0.00876,-0.01648
0.79648,0.28395,0.19882,9.84067,0.04422,-0.00246,-0.04564
0.57765,0.29269,0.19323,9.80123,0.08885,-0.00544,0.00677
0.65763,0.30743,0.19241,9.83322,0.03355,0.01231,0.02586
0.40776,0.29863,0.20875,9.77791,0.06821,-0.02118,-0.00982
0.61721,0.28163,0.18593,9.78648,0.05281,0.00418,0.01423
0.64811,0.29428,0.20330,9.81263,0.02995,-0.02716,-0.05586
0.70084,0.29109,0.18102,9.80189,0.06874,-0.01089,0.00611
0.86097,0.26299,0.20465,9.80546,0.07166,-0.01853,0.00395
0.76604,0.28803,0.18941,9.83056,0.03941,0.00064,0.00282
0.65086,0.30899,0.19383,9.83080,0.03799,0.01354,0.00684
0.38823,0.30592,0.20062,9.82306,0.04996,-0.02504,-0.01265
0.43738,0.29872,0.19585,9.80639,0.04557,-0.01783,0.03077
0.87061,0.27931,0.19246,9.78208,0.03203,-0.00402,0.00483
0.48991,0.29520,0.18822,9.84121,0.07122,-0.01583,0.00605
0.70327,0.29919,0.18343,9.80392,0.03193,0.00609,0.00018
0.64518,0.29242,0.18998,9.78345,0.06180,0.02025,-0.01903
0.53607,0.28658,0.18266,9.81508,0.04089,0.00871,-0.00618
0.76944,0.29784,0.20344,9.79999,0.02544,-0.02824,0.01530
0.56831,0.31121,0.19923,9.81641,-0.00997,0.01989,0.00047
0.81387,0.29433,0.18562,9.80339,0.05329,-0.00173,0.00187
0.64887,0.29039,0.17222,9.80830,0.04895,-0.01625,0.00450
0.85770,0.29554,0.18227,9.79479,0.00846,0.02689,-0.00307
0.45343,0.28144,0.18342,9.79612,0.04632,0.01875,0.00143
0.42595,0.30074,0.19135,9.81346,0.06208,0.00225,0.03250
0.85546,0.30800,0.19295,9.82226,0.05281,-0.00121,0.00442
0.37132,0.29208,0.19754,9.78075,0.01592,0.00472,0.00134
0.43779,0.31228,0.18940,9.79212,0.02111,-0.00421,0.03813
0.85157,0.30875,0.19315,9.78451,0.05672,0.03596,0.03012
0.48530,0.31206,0.17853,9.76966,0.10096,-0.00999,0.03022
0.31144,0.30792,0.20906,9.81363,0.01898,-0.01397,0.01342
0.67455,0.29290,0.20442,9.81792,0.04029,0.02298,0.00439
0.31468,0.29977,0.17168,9.84130,-0.01166,0.01033,-0.00901
0.31983,0.29678,0.20210,9.81945,0.03035,-0.02879,-0.02346
0.57721,0.28990,0.19986,9.79916,-0.00017,-0.01580,0.00052
0.56387,0.28787,0.19801,9.81321,0.04078,0.03816,-0.01357
0.84363,0.27311,0.18100,9.79222,0.04669,0.00557,0.00626
0.55092,0.30488,0.17754,9.81604,0.00816,0.01006,-0.03038
0.50977,0.28964,0.19538,9.81293,0.05641,-0.00525,0.00642
0.77692,0.29318,0.19625,9.76544,0.03356,0.00446,0.01299
0.42117,0.29032,0.19860,9.82215,-0.00098,-0.00479,0.03091
0.93221,0.29424,0.18973,9.76596,0.04321,0.00090,0.01535
0.51087,0.28352,0.19848,9.79733,0.00717,-0.03374,-0.00269
0.37809,0.29880,0.19107,9.78731,-0.00953,-0.00349,0.00153
0.54485,0.29678,0.18276,9.82306,0.05666,-0.00441,-0.01299
0.55189,0.29109,0.18649,9.80509,0.02709,-0.00097,0.01405
0.46867,0.28131,0.19853,9.78147,0.04382,-0.01727,-0.00416
0.32390,0.27260,0.20517,9.85062,0.00991,0.02469,-0.02183
0.80367,0.30138,0.19028,9.79088,0.03876,0.00362,0.00888
0.60122,0.30107,0.19503,9.81519,0.01777,-0.00167,-0.00866
0.39053,0.31801,0.20197,9.80693,0.03637,-0.00410,-0.00642
0.32227,0.29406,0.19766,9.79412,0.02700,0.00808,-0.02222
0.33608,0.31405,0.18553,9.81930,0.03108,-0.02864,0.01300
0.54724,0.28049,0.18103,9.79765,0.01433,-0.01473,0.01109
0.33890,0.28023,0.20185,9.76666,0.01314,0.01612,-0.01528
0.64436,0.28668,0.19920,9.79499,0.01009,-0.03002,-0.00810
0.81233,0.29836,0.19785,9.83630,0.00019,-0.04244,0.01152
0.39189,0.29078,0.19808,9.80504,0.02983,-0.01162,-0.01152
0.83780,0.28985,0.17594,9.81477,0.04120,0.02535,-0.00121
0.90555,0.29719,0.19202,9.79233,0.00335,0.00463,-0.02226
0.34307,0.28935,0.17545,9.78570,0.03991,0.01240,-0.01583
0.33998,0.30979,0.18335,9.83941,0.00947,0.00072,-0.01421
0.86555,0.30688,0.20539,9.81666,0.00622,0.00915,0.00104
0.45704,0.29296,0.20610,9.82591,0.01093,-0.01036,-0.00878
0.33154,0.29197,0.18487,9.79750,-0.02041,0.01079,-0.02652
0.74573,0.28916,0.18991,9.81613,0.04947,0.00101,0.00493
0.47907,0.29550,0.19545,9.75690,0.04307,-0.00680,0.01116
0.70898,0.31554,0.19656,9.77395,0.02010,0.01052,-0.00824
0.50111,0.28923,0.18862,9.81665,0.03774,0.00941,-0.00380
0.42060,0.30009,0.18396,9.82006,-0.00381,0.01421,0.03363
0.70478,0.29272,0.19382,9.81333,0.02933,-0.04646,-0.03325
0.30160,0.28840,0.19470,9.80010,0.03843,-0.00689,0.03067
0.70314,0.31045,0.18842,9.79599,0.03649,0.01305,-0.01166
0.79298,0.29633,0.18078,9.79328,-0.00984,0.01927,0.00293
0.91948,0.29684,0.20484,9.82370,0.00045,-0.00255,-0.03356
0.68988,0.29891,0.18942,9.82098,0.01194,0.00533,0.02394
0.85503,0.29476,0.18217,9.80495,0.03818,0.00160,-0.02421
0.87668,0.28876,0.21024,9.81575,0.00214,0.01300,-0.04223
0.68835,0.29555,0.20632,9.80479,-0.01792,-0.01296,0.01194
0.60578,0.29617,0.19699,9.81557,0.00114,-0.00826,0.00249
0.66399,0.30674,0.17085,9.81069,0.01605,-0.00270,-0.01707
0.73340,0.30166,0.19113,9.82639,-0.01939,0.00907,-0.00477
0.38255,0.30537,0.18934,9.82066,0.02583,-0.03257,-0.00108
0.77124,0.27936,0.20080,9.81243,0.02711,-0.02678,0.02369
0.37895,0.29433,0.18344,9.78858,0.01110,-0.01932,0.01928
0.35787,0.30399,0.19472,9.82071,0.02915,0.00190,-0.00359
0.83243,0.32018,0.18134,9.79379,0.02177,-0.01685,-0.02064
0.58907,0.30094,0.18139,9.82710,0.01206,0.02011,-0.00146
0.77753,0.28393,0.19037,9.79836,-0.02436,-0.02665,-0.03713
0.74165,0.29814,0.19652,9.78395,-0.01002,-0.02768,-0.00952
0.56096,0.29229,0.18412,9.77055,-0.02619,0.00171,-0.00264
0.73511,0.27794,0.18044,9.82593,0.02248,-0.01409,0.00786
0.81729,0.29536,0.19955,9.83871,-0.00356,-0.01271,0.01153
0.56997,0.28421,0.20313,9.82507,0.00495,-0.01812,0.02075
0.88398,0.28864,0.19620,9.84670,-0.00158,0.00761,0.00008
0.68899,0.29324,0.19042,9.79784,-0.02108,0.02212,0.00407
0.88110,0.27804,0.19667,9.81274,0.00688,0.01384,0.03078
0.47237,0.28961,0.18129,9.78998,0.00816,-0.00887,-0.00521
0.48483,0.28826,0.20218,9.78039,0.00367,0.00572,0.00420
0.77748,0.29612,0.19557,9.80930,-0.00333,-0.00034,-0.04698
0.72132,0.30583,0.18638,9.79898,0.01668,-0.02893,0.03050
0.91907,0.27379,0.18611,9.79321,0.01568,0.00660,-0.00444
0.58220,0.29038,0.17583,9.81834,-0.00943,-0.03234,-0.02409
0.45616,0.27806,0.18167,9.83042,-0.01513,-0.01909,-0.01103
0.89841,0.31316,0.18624,9.82880,-0.00133,0.03482,0.01030
0.46965,0.30018,0.17992,9.82617,0.01466,0.01034,0.04201
0.87283,0.30902,0.17409,9.80835,-0.02084,0.00376,0.01046
0.57656,0.28688,0.18584,9.80970,0.00020,-0.01621,-0.01173
0.80253,0.30083,0.20053,9.83203,0.01441,0.00079,0.01377
0.74730,0.29182,0.17652,9.82262,0.01893,0.03887,0.02792
0.41264,0.29492,0.20243,9.81820,-0.01228,0.01627,0.01863
0.76111,0.30371,0.20714,9.77660,-0.00382,-0.02696,-0.01202
0.71517,0.29458,0.18131,9.79388,-0.02708,0.02249,-0.02857
0.44053,0.29828,0.20499,9.82745,0.02297,-0.01270,0.01428
0.82476,0.30799,0.18734,9.81715,-0.00793,-0.03780,-0.00860
0.87983,0.30404,0.18341,9.77777,-0.03541,-0.00336,0.00349
0.64273,0.28997,0.19245,9.84568,-0.02234,-0.02206,0.00002
0.67889,0.30712,0.19601,9.78044,-0.02340,-0.01001,0.01025
0.89749,0.29229,0.18009,9.82109,-0.03047,-0.00553,-0.01865
0.86996,0.31161,0.19506,9.84150,0.00114,-0.02884,0.03789
0.42040,0.28539,0.19186,9.83921,-0.01371,0.03565,-0.05003
0.61305,0.30816,0.20789,9.80795,-0.03029,0.01549,-0.00636
0.44727,0.30149,0.18322,9.83273,0.01271,-0.03165,-0.01750
0.80433,0.28458,0.19389,9.81932,-0.01777,-0.01564,0.00861
0.76011,0.29514,0.18973,9.80606,-0.03861,-0.02601,-0.05380
0.40866,0.29201,0.20351,9.77172,0.03134,0.03069,0.00281
0.89410,0.28734,0.18023,9.83758,-0.01897,-0.00433,0.00298
0.41407,0.29629,0.20504,9.80181,-0.03588,0.02165,0.00824
0.73850,0.30476,0.18021,9.80541,0.01414,-0.00680,0.00749
0.31992,0.29616,0.18894,9.80974,-0.03846,-0.01154,-0.00491
0.80932,0.29996,0.20154,9.79689,-0.03236,-0.00825,-0.00397
0.36804,0.28546,0.19838,9.84359,0.00928,0.00315,-0.03562
0.58484,0.28192,0.18952,9.80202,-0.05091,0.02379,0.02351
0.88951,0.29127,0.18598,9.80265,-0.05076,-0.01211,0.00752
0.43107,0.30184,0.20201,9.81318,-0.02172,0.02357,-0.00299
0.49797,0.29212,0.19122,9.80991,-0.03301,0.04593,-0.03469
0.69124,0.28264,0.19555,9.80178,-0.04126,0.01856,-0.00163
0.62521,0.29938,0.19422,9.79668,-0.01243,0.01562,0.02493
0.61766,0.29692,0.20032,9.82930,0.00086,0.01370,0.00691
0.54569,0.28914,0.19774,9.81765,-0.04725,0.01392,-0.00746
0.73789,0.31031,0.19066,9.81681,-0.00219,-0.02039,-0.03096
0.65286,0.29763,0.20176,9.80899,0.00613,0.00441,0.00912
0.37082,0.29128,0.19001,9.79791,-0.03583,-0.00801,0.01383
0.82174,0.29616,0.17224,9.84673,-0.02847,0.00651,0.01110
0.73140,0.28828,0.20852,9.78551,-0.02053,-0.01227,-0.03813
0.59767,0.28139,0.20268,9.85252,-0.03675,0.01177,-0.00287
0.56661,0.27855,0.18022,9.79966,-0.02155,0.02397,0.00143
0.40698,0.30160,0.19082,9.80344,-0.03187,-0.05353,-0.00399
0.65062,0.29290,0.18500,9.84566,-0.02710,-0.01607,-0.00023
0.59521,0.28717,0.19447,9.79430,0.00598,-0.03781,-0.01442
0.36368,0.30873,0.19888,9.82130,-0.02903,0.03087,0.01164
0.59180,0.29540,0.20134,9.80505,-0.05777,-0.00177,-0.02386
0.90184,0.30625,0.18113,9.78706,-0.01039,0.02805,-0.01758
0.71873,0.27850,0.19173,9.84276,0.00913,-0.01131,0.01790
0.64877,0.27418,0.17499,9.79112,-0.06360,-0.01413,-0.00210
0.35787,0.28417,0.20116,9.80383,-0.04131,0.01332,0.03356
0.47879,0.27775,0.18699,9.82245,-0.01638,-0.00374,0.01333
0.73010,0.29131,0.18329,9.85378,-0.05152,-0.02925,0.02175
0.67557,0.28485,0.19184,9.79665,-0.04055,-0.00123,0.00162
0.84142,0.30278,0.20051,9.82384,-0.00846,0.01220,0.00585
0.60091,0.30229,0.20328,9.81300,-0.00980,-0.00645,0.02015
0.41293,0.28963,0.17344,9.82440,-0.02028,0.01589,-0.01727
0.82992,0.29609,0.19731,9.82940,-0.02556,-0.00164,-0.04298
0.40339,0.30482,0.18717,9.79646,-0.05328,0.01203,0.00975
0.46481,0.29580,0.17059,9.76465,-0.03204,0.01096,-0.01655
0.36906,0.29518,0.19775,9.82952,-0.03038,-0.01461,-0.00797
0.86939,0.29300,0.18053,9.80434,-0.01009,0.00103,-0.01506
0.37638,0.29325,0.19327,9.77026,-0.01785,-0.00054,0.00571
0.71186,0.29946,0.17672,9.79736,-0.03357,0.02672,-0.00125
0.68206,0.29897,0.22078,9.82455,-0.01483,-0.00908,-0.00650
0.32474,0.28649,0.19589,9.80029,-0.04511,-0.01177,0.01958
0.59538,0.28689,0.19021,9.82611,-0.04713,0.01676,-0.00265
0.33019,0.30918,0.19651,9.81535,-0.01330,0.00774,-0.00501
0.42892,0.29045,0.18968,9.81851,-0.01049,0.00217,0.01161
0.73110,0.28224,0.20448,9.79104,-0.03967,-0.00806,-0.01112
0.53846,0.28993,0.19096,9.79988,-0.07441,-0.02283,-0.00735
0.71207,0.29684,0.18942,9.79245,-0.04242,-0.00933,-0.05974
0.42011,0.29032,0.19574,9.83361,-0.03825,0.04095,0.02637
0.85039,0.30182,0.18452,9.80103,-0.08112,0.01898,0.00860
0.85459,0.29309,0.17867,9.79197,-0.03433,0.00442,-0.03254
0.70191,0.29250,0.18117,9.79388,-0.07607,0.01184,-0.00214
0.72448,0.30459,0.18476,9.81929,-0.03472,0.01081,0.00621
0.85776,0.29575,0.18056,9.80360,-0.06349,-0.00465,0.01332
0.71335,0.29094,0.19830,9.81417,-0.02942,0.00275,0.03408
0.43168,0.29647,0.17736,9.81023,-0.00363,-0.00103,-0.00023
0.49332,0.28689,0.20478,9.82562,-0.07182,-0.00975,-0.02307
0.50976,0.30994,0.19772,9.81630,-0.05438,0.01218,-0.00270
0.82898,0.28620,0.19431,9.77571,-0.01630,0.02052,-0.02148
0.84169,0.28419,0.18179,9.81576,-0.05563,-0.00311,0.02622
0.78485,0.28672,0.19310,9.84198,-0.07245,0.03169,0.01053
0.41805,0.29666,0.18633,9.77772,-0.04174,-0.00248,-0.00330
0.40653,0.30140,0.18830,9.80524,-0.03064,0.00656,0.04465
0.33146,0.27645,0.18857,9.81969,-0.07001,-0.00295,0.00284
0.79836,0.27794,0.19854,9.81410,-0.03547,0.00556,-0.00230
0.87745,0.29677,0.19002,9.80842,-0.06364,-0.00355,-0.01297
0.56824,0.28796,0.19594,9.82535,-0.04217,0.00560,-0.01001
0.34758,0.29417,0.18713,9.80307,-0.02355,0.00572,-0.00947
0.86817,0.29358,0.20006,9.83333,-0.04073,0.04063,-0.03111
0.82119,0.29656,0.19524,9.81713,-0.04148,0.01809,-0.00515
0.70278,0.30719,0.20991,9.78949,-0.05778,-0.00765,-0.02657
0.70251,0.30048,0.20331,9.79826,-0.01335,-0.00543,0.00764
0.82526,0.27194,0.19717,9.78074,-0.04762,0.00061,0.01036
0.68888,0.28738,0.20030,9.80371,-0.08378,-0.00740,0.00101
0.66235,0.28952,0.21863,9.84489,-0.04153,0.01794,-0.00886
0.73509,0.27625,0.20046,9.79197,-0.01902,-0.00853,-0.01237
0.52649,0.29163,0.17314,9.80248,-0.07040,0.01749,-0.02316
0.72849,0.29116,0.17574,9.81014,-0.04961,0.00372,-0.00014
0.67849,0.28532,0.19996,9.81678,-0.02823,-0.03267,0.00702
0.37132,0.30732,0.17005,9.82273,-0.05979,0.00319,-0.00599
0.41300,0.28741,0.18968,9.81322,-0.03369,-0.00422,-0.00886
0.31614,0.30157,0.17410,9.82873,-0.04938,0.00704,0.00381
0.64595,0.28569,0.19814,9.84007,-0.05380,-0.03097,-0.00630
0.52201,0.29387,0.17624,9.80733,-0.04256,0.00375,-0.00347
0.74772,0.29074,0.19885,9.78379,-0.03628,-0.01786,0.02149
0.56175,0.28804,0.18121,9.83973,-0.01000,-0.05473,-0.00744
0.38167,0.30410,0.19261,9.82250,-0.05593,-0.02559,0.02007
0.55018,0.28498,0.20459,9.81560,-0.06637,0.00949,-0.02724
0.42309,0.29297,0.17594,9.78661,-0.04018,0.00286,-0.00710
0.65637,0.29071,0.18279,9.78297,-0.06578,0.01551,0.00320
0.86234,0.28517,0.19215,9.80408,-0.07607,0.04405,0.01876
0.47044,0.28490,0.19533,9.81037,-0.08977,0.03073,-0.00509
0.33096,0.29914,0.20602,9.83152,-0.04245,0.02154,-0.01961
0.82915,0.28858,0.19696,9.76950,-0.04897,0.02653,0.01761
0.84094,0.27629,0.19211,9.79823,-0.03551,-0.00546,-0.00387
0.82936,0.28030,0.20614,9.79997,-0.04343,0.01312,-0.01670
0.83741,0.27995,0.19493,9.83655,-0.04967,0.00522,-0.01630
0.76596,0.30228,0.20721,9.75959,-0.07576,0.00168,-0.00838
0.33829,0.31104,0.19571,9.82377,-0.06649,0.00655,0.01480
0.48581,0.28189,0.19272,9.83071,-0.08158,0.00654,0.00795
0.67961,0.29425,0.17542,9.83300,-0.05264,-0.00523,-0.02585
0.89991,0.27866,0.20224,9.79439,-0.06280,0.02150,-0.02135
0.65203,0.27627,0.19206,9.84709,-0.02356,0.00195,-0.00297
0.55093,0.29798,0.19585,9.80139,-0.06106,-0.02803,0.00610
0.83181,0.28993,0.18891,9.76562,-0.03338,-0.01600,0.00557
0.50734,0.30044,0.19121,9.80328,-0.08579,-0.00099,0.00550
0.36536,0.29149,0.19040,9.81456,-0.08027,-0.01161,0.01745
0.55070,0.28542,0.19204,9.84336,-0.10141,-0.00642,-0.01450
0.68797,0.29051,0.18453,9.81946,-0.07497,-0.03936,-0.02941
0.45105,0.29065,0.18764,9.82491,-0.07651,0.00024,-0.01199
0.48972,0.29394,0.18928,9.79903,-0.07252,-0.01768,-0.00697
0.28737,0.29109,0.17831,9.83622,-0.05287,-0.01316,-0.01182
0.92239,0.28205,0.19079,9.79261,-0.05431,0.01797,0.02400
0.40013,0.29814,0.18960,9.80830,-0.06796,-0.03600,0.01156
0.32526,0.29628,0.19727,9.81807,-0.04750,-0.00274,-0.01155
0.52309,0.27364,0.21167,9.83582,-0.07329,0.03652,0.00331
0.32853,0.28066,0.20199,9.78710,-0.08221,-0.01777,-0.01576
0.63543,0.27086,0.18908,9.81941,-0.06145,-0.01124,0.00543
0.63803,0.28499,0.20014,9.78474,-0.08511,0.00625,-0.03312
0.78295,0.30559,0.19103,9.83302,-0.05291,-0.01533,-0.01374
0.59834,0.26449,0.20034,9.82271,-0.07545,-0.00252,-0.00518
0.45397,0.27787,0.19432,9.81755,-0.05019,0.03717,0.03691
0.81676,0.29680,0.18687,9.77849,-0.05251,0.00093,0.00266
0.84388,0.28532,0.21060,9.81579,-0.09220,0.00228,0.04288
0.56022,0.28751,0.17861,9.83615,-0.06125,-0.02449,-0.02577
0.93922,0.28822,0.21851,9.82014,-0.04632,0.01703,-0.03167
0.66633,0.29702,0.19772,9.80825,-0.05380,-0.01367,-0.00846
0.78421,0.27249,0.19123,9.81823,-0.11175,-0.01082,-0.01114
0.64455,0.28436,0.20055,9.82186,-0.09311,-0.01943,0.03089
0.85781,0.29503,0.19629,9.80949,-0.08563,-0.02707,0.00810
0.51763,0.30760,0.18803,9.83370,-0.07448,0.03479,0.00770
0.66212,0.28251,0.21473,9.79014,-0.09645,-0.00821,-0.00447
0.56763,0.28335,0.18735,9.85155,-0.05693,0.01286,-0.02459
0.56368,0.28383,0.19177,9.85528,-0.05432,0.02706,0.01407
0.50815,0.30596,0.19392,9.79825,-0.06482,0.00080,-0.02492
0.30766,0.31719,0.18686,9.78254,-0.07501,-0.01125,-0.00338
0.75674,0.28267,0.19379,9.81080,-0.08972,-0.00085,0.00662
0.42284,0.28217,0.19790,9.80339,-0.12566,-0.00253,0.02279
0.85724,0.29566,0.18714,9.84180,-0.10313,0.00063,-0.01059
0.41148,0.27718,0.17241,9.80612,-0.06002,-0.02951,-0.01711
0.50052,0.26126,0.17105,9.81316,-0.10950,0.01529,0.01124
0.63880,0.27330,0.19727,9.79012,-0.06038,0.01113,0.00475
0.29373,0.28392,0.18666,9.84606,-0.11271,-0.04096,-0.00295
0.41189,0.27694,0.20760,9.80513,-0.07538,-0.01065,-0.01609
0.78030,0.29071,0.20064,9.81122,-0.11667,0.00769,0.02066
0.51609,0.27467,0.18443,9.82288,-0.07261,-0.03229,-0.02600
0.85362,0.29394,0.17693,9.82586,-0.09005,0.01600,0.01175
0.63326,0.29468,0.19111,9.81871,-0.07463,-0.00913,0.01740
0.63957,0.29814,0.21014,9.76327,-0.06979,-0.00862,0.01106
0.82046,0.28645,0.19037,9.80534,-0.09014,0.02978,0.02027
0.72878,0.30041,0.18144,9.82495,-0.09525,0.02539,-0.02420
0.59193,0.29892,0.17051,9.82399,-0.07168,-0.00360,-0.00329
0.33811,0.28392,0.18505,9.83737,-0.09674,0.00480,0.01559
0.56155,0.30824,0.17449,9.84685,-0.10215,-0.00213,0.03500
0.37395,0.28206,0.18522,9.83420,-0.08034,-0.01466,0.00523
0.58597,0.29718,0.20599,9.81080,-0.12868,0.02018,-0.00440
0.58567,0.29160,0.17883,9.79617,-0.06988,-0.00261,-0.00172
0.44408,0.28177,0.19581,9.77209,-0.10236,-0.01756,-0.02747
0.47066,0.29540,0.19334,9.81120,-0.08041,0.03612,0.00357
0.43389,0.27237,0.18525,9.83130,-0.11492,-0.00833,0.02036
0.34810,0.28193,0.19370,9.82865,-0.04937,-0.00628,-0.03468
0.40983,0.28138,0.19776,9.79581,-0.05175,-0.00673,-0.00907
0.82525,0.27487,0.19693,9.80205,-0.06103,0.00526,-0.01502
0.86076,0.29133,0.19723,9.82381,-0.07130,-0.00660,-0.00033
0.48719,0.29035,0.19070,9.78917,-0.09645,0.01953,-0.02040
0.58249,0.26806,0.19802,9.77936,-0.13156,0.00126,0.00649
0.32066,0.28541,0.19767,9.81850,-0.11491,-0.02175,-0.00719
0.74616,0.28735,0.18648,9.81964,-0.05850,-0.00949,0.01348
0.65689,0.27704,0.17639,9.80937,-0.10960,0.00248,0.01230
0.48090,0.28716,0.19465,9.81894,-0.09966,0.02262,0.00181
0.50732,0.28821,0.20528,9.82402,-0.07740,-0.02141,0.02598
0.58795,0.28111,0.19675,9.82086,-0.11755,0.03792,-0.00229
0.62075,0.28578,0.19903,9.81949,-0.09640,-0.02187,-0.00577
0.39412,0.27127,0.19276,9.82858,-0.09336,-0.01044,-0.04083
0.79156,0.26374,0.18793,9.80446,-0.10807,-0.02969,0.05500
0.82096,0.27749,0.18732,9.79503,-0.09563,-0.00304,-0.05375
0.51519,0.27376,0.20568,9.80201,-0.05629,-0.00882,-0.01853
0.53093,0.29199,0.18882,9.80710,-0.06672,0.01519,-0.01289
0.56757,0.27970,0.20371,9.81619,-0.11240,0.02294,-0.02014
0.88984,0.28205,0.18405,9.83308,-0.10210,-0.00883,-0.02060
0.41749,0.27683,0.18765,9.79539,-0.10661,0.03484,0.00576
0.47038,0.27683,0.19020,9.80271,-0.07859,-0.00038,-0.00061
0.44125,0.28603,0.20139,9.78708,-0.09758,-0.01153,0.01363
0.90572,0.28365,0.20457,9.82229,-0.09257,-0.01845,0.00314
0.77337,0.27119,0.19650,9.80812,-0.10104,0.01692,-0.00960
0.73127,0.27321,0.20386,9.80457,-0.11248,0.01673,0.01914
0.50285,0.28546,0.18337,9.79187,-0.12980,0.02872,-0.01008
0.56936,0.26964,0.21363,9.80477,-0.12304,-0.01877,0.00917
0.57136,0.28074,0.20217,9.80448,-0.10060,-0.02762,-0.00482
0.62143,0.28710,0.20107,9.79473,-0.10874,0.00067,-0.01996
0.57804,0.27890,0.19995,9.79429,-0.09619,0.00225,0.01394
0.47469,0.28485,0.19687,9.79218,-0.10087,0.03048,0.01226
0.70421,0.27462,0.19368,9.82072,-0.10480,-0.02335,0.00497
0.84095,0.27504,0.20032,9.81227,-0.10399,-0.03038,0.00288
0.39604,0.27760,0.19541,9.81622,-0.09786,0.02173,0.01076
0.31459,0.28478,0.19920,9.84684,-0.10874,0.01371,-0.02110
0.77644,0.25929,0.18427,9.79571,-0.11354,-0.00965,0.01222
0.37586,0.27647,0.17961,9.79363,-0.10313,-0.02504,-0.04393
0.58593,0.26830,0.19064,9.80098,-0.12427,0.01049,0.02176
0.64239,0.28528,0.19277,9.78409,-0.13993,-0.00431,-0.00404
0.86609,0.27404,0.19084,9.79413,-0.08823,-0.00215,0.01460
0.49068,0.27378,0.18262,9.83697,-0.09614,-0.01904,0.02557
0.49594,0.25916,0.18921,9.84338,-0.11434,0.01892,0.02489
0.51144,0.26172,0.19481,9.76932,-0.12931,0.00388,-0.02411
0.35528,0.29826,0.18422,9.83262,-0.11367,0.00345,0.00704
0.34849,0.29415,0.20668,9.77659,-0.10413,0.03612,-0.00426
0.74319,0.29704,0.20196,9.84751,-0.10880,-0.02086,0.02530
0.37951,0.27772,0.18907,9.81229,-0.13722,0.02446,-0.03819
0.48653,0.26609,0.20530,9.80818,-0.10570,0.01450,-0.01517
0.42700,0.28478,0.20789,9.81471,-0.12307,-0.02450,-0.01390
0.71169,0.29245,0.19969,9.79827,-0.13238,0.01374,0.01152
0.74358,0.28698,0.18469,9.77221,-0.11084,-0.02048,-0.00970
0.49245,0.26599,0.19472,9.81568,-0.12964,0.00855,0.00728
0.77291,0.27299,0.19710,9.81330,-0.08570,-0.00693,0.01244
0.87781,0.27075,0.19124,9.80282,-0.07677,-0.03794,0.02334
0.82377,0.28486,0.18745,9.80449,-0.10946,-0.00314,-0.00917
0.59616,0.27010,0.20127,9.81340,-0.11517,0.01801,0.00101
0.61735,0.27150,0.16976,9.78874,-0.14948,0.00070,0.00775
0.89450,0.26481,0.19263,9.80466,-0.06621,-0.00581,-0.02246
0.33243,0.25050,0.18469,9.80925,-0.10945,0.02321,0.00528
0.67475,0.27683,0.20804,9.76681,-0.10899,0.00091,0.00540
0.58438,0.28278,0.18075,9.80808,-0.14140,0.03226,0.01096
0.69819,0.27744,0.19936,9.82635,-0.07112,-0.03427,-0.00884
0.57161,0.27954,0.19500,9.79781,-0.12457,-0.00066,-0.04187
0.72009,0.25986,0.20831,9.81298,-0.11435,-0.00738,0.00883
0.33525,0.26385,0.20426,9.81060,-0.10122,-0.01794,-0.01412
0.38687,0.27574,0.18120,9.80367,-0.12002,-0.01871,0.01215
0.72071,0.28828,0.18619,9.80228,-0.09063,-0.01556,-0.00265
0.71200,0.27179,0.20514,9.79169,-0.13083,-0.01123,0.00313
0.89597,0.27369,0.20881,9.81471,-0.10086,0.00448,-0.01012
0.87750,0.25777,0.18777,9.81282,-0.12525,0.00004,-0.00344
0.81570,0.27829,0.19659,9.79195,-0.13532,0.01283,-0.01497
0.33016,0.27728,0.18953,9.81275,-0.12935,0.02349,-0.00265
0.66899,0.28867,0.17845,9.84047,-0.14133,-0.02831,-0.01820
0.51476,0.26139,0.17801,9.82421,-0.12236,-0.00683,0.01534
0.74534,0.26194,0.17475,9.83065,-0.13064,-0.02327,-0.01142
0.62158,0.27876,0.19193,9.76454,-0.12023,0.00258,0.01506
0.30457,0.27022,0.20507,9.79953,-0.10594,-0.01417,-0.01258
0.70292,0.25217,0.18856,9.80353,-0.13945,-0.00734,-0.00114
0.59014,0.25942,0.19671,9.83236,-0.12875,0.00783,-0.01163
0.35007,0.26664,0.18591,9.79890,-0.11273,0.00493,0.00161
0.80544,0.27930,0.20272,9.82674,-0.10262,0.00939,0.00302
0.30721,0.25108,0.19005,9.80718,-0.12661,-0.00694,-0.00342
0.43936,0.26050,0.17485,9.79075,-0.10024,-0.01497,-0.01096
0.32404,0.27303,0.19336,9.82770,-0.15172,0.02690,-0.02476
0.83995,0.27424,0.19960,9.81429,-0.14400,-0.02435,0.01586
0.60992,0.26620,0.19427,9.81511,-0.08696,-0.01869,0.02706
0.78920,0.25094,0.19148,9.78364,-0.12866,-0.00775,0.01155
0.82996,0.27140,0.16699,9.85758,-0.12067,0.00380,0.01311
0.59647,0.25668,0.18700,9.78171,-0.11216,0.01410,-0.02004
0.30684,0.26985,0.18532,9.81574,-0.12002,-0.01428,0.00056
0.77550,0.26041,0.20112,9.80989,-0.13892,0.00183,0.03244
0.81609,0.27445,0.17055,9.80843,-0.14500,-0.02239,-0.01978
0.64817,0.26955,0.18815,9.77634,-0.13797,-0.02217,0.01454
0.38182,0.27516,0.19113,9.81759,-0.18058,0.02723,-0.02514
0.75058,0.28329,0.18072,9.82010,-0.12972,-0.00214,0.02535
0.85761,0.26137,0.20315,9.81452,-0.15345,-0.05640,0.02705
0.88086,0.27407,0.18748,9.78914,-0.11686,-0.00238,-0.00978
0.85994,0.25818,0.16896,9.76711,-0.10053,0.00919,-0.01338
0.56258,0.24792,0.19869,9.80443,-0.11032,0.00844,0.00953
0.80021,0.25397,0.21119,9.83136,-0.14882,-0.01066,-0.01154
0.54739,0.25226,0.19209,9.81849,-0.13632,-0.00536,0.01747
0.65952,0.25744,0.19871,9.79248,-0.14141,0.01572,0.00483
0.79841,0.26225,0.16289,9.81592,-0.11063,-0.02463,-0.01257
0.35750,0.26985,0.19125,9.83126,-0.12211,-0.01089,0.05211
0.72244,0.27793,0.18610,9.81861,-0.12439,0.01775,-0.02845
0.35791,0.24997,0.17552,9.80113,-0.09758,0.00158,0.01330
0.86726,0.24970,0.18587,9.77261,-0.14071,-0.00269,0.00926
0.73595,0.25515,0.18578,9.81645,-0.09463,-0.04744,-0.00115
0.50235,0.27953,0.20137,9.80748,-0.15424,-0.01606,-0.00071
0.64384,0.26232,0.19059,9.79325,-0.11806,-0.00971,0.03240
0.47586,0.27150,0.18058,9.81387,-0.14120,-0.00168,-0.00189
0.34800,0.28010,0.18931,9.79608,-0.11659,0.02986,-0.00168
0.40293,0.28054,0.17569,9.83075,-0.16431,0.00746,0.00015
0.63787,0.26893,0.18616,9.81769,-0.15805,0.01810,-0.01492
0.67664,0.26626,0.20062,9.81189,-0.12261,-0.03554,0.00335
0.52105,0.27141,0.19700,9.81557,-0.11497,-0.02282,-0.01225
0.54660,0.25965,0.18877,9.79290,-0.13611,0.02337,0.02022
0.72630,0.25066,0.19692,9.78818,-0.15283,0.00769,-0.00605
0.85691,0.26255,0.18956,9.81213,-0.15623,-0.00822,0.01816
0.52968,0.27473,0.19118,9.84207,-0.16098,0.03122,-0.00738
0.66267,0.26480,0.19893,9.77569,-0.17606,-0.01354,-0.01169
0.69474,0.26318,0.19446,9.80177,-0.15442,-0.04235,0.00268
0.66772,0.25155,0.19196,9.81372,-0.13138,-0.03865,-0.00882
0.45152,0.23990,0.18967,9.82215,-0.14783,-0.04718,0.00392
0.86512,0.26858,0.19914,9.79837,-0.14218,-0.00459,0.01371
0.76372,0.26829,0.20559,9.83455,-0.14965,-0.00878,-0.00094
0.33511,0.27440,0.20028,9.81161,-0.16477,0.03750,0.00348
0.68180,0.27319,0.19487,9.79732,-0.15815,-0.01066,-0.01071
0.33550,0.25864,0.19979,9.80738,-0.11584,-0.01633,0.00297
0.38095,0.25678,0.17144,9.81456,-0.16001,-0.00310,0.02331
0.53872,0.25045,0.20218,9.82107,-0.13680,0.01988,-0.00312
0.42167,0.26838,0.18757,9.79595,-0.12619,-0.05078,0.01006
0.82577,0.25120,0.19367,9.82747,-0.12510,-0.03161,0.00531
0.64375,0.27552,0.19309,9.82728,-0.15299,0.00973,-0.01120
0.56718,0.27363,0.19375,9.81113,-0.18298,-0.01662,-0.00490
0.67750,0.27224,0.17352,9.80642,-0.13958,-0.00038,0.02449
0.54442,0.25813,0.18729,9.80986,-0.16029,-0.04940,0.02043
0.31256,0.26046,0.19704,9.78816,-0.14880,-0.02517,-0.01354
0.57120,0.25123,0.21498,9.79919,-0.17083,-0.01445,-0.01276
0.70547,0.26665,0.19717,9.83647,-0.15481,-0.02361,-0.00017
0.88402,0.27128,0.18623,9.81647,-0.15849,-0.03717,-0.00574
0.29602,0.25961,0.21836,9.83246,-0.15516,0.01193,-0.00856
0.47530,0.26694,0.19752,9.82030,-0.13522,-0.01334,-0.00520
0.69170,0.25278,0.20198,9.77366,-0.16582,-0.00865,-0.01442
0.43852,0.24186,0.18959,9.82017,-0.14611,-0.00197,-0.01609
0.48634,0.26653,0.17880,9.79222,-0.16850,0.03012,-0.01349
0.77556,0.26586,0.18261,9.79803,-0.15029,0.01251,-0.05880
0.35851,0.25005,0.20376,9.84506,-0.17163,0.03811,0.02267
0.57153,0.25059,0.18572,9.80001,-0.15314,-0.01809,-0.00718
0.51425,0.25628,0.18121,9.80661,-0.12497,-0.02573,0.04636
0.78681,0.25006,0.17483,9.78844,-0.16254,0.00737,-0.02951
0.61774,0.25808,0.20284,9.81302,-0.18344,0.00630,-0.00187
0.62213,0.27787,0.19312,9.80071,-0.14628,-0.00004,-0.00293
0.56315,0.25379,0.19180,9.81826,-0.16553,0.01123,0.02407
0.30719,0.25194,0.20473,9.83968,-0.14714,-0.00053,0.02802
0.90042,0.23562,0.22430,9.77983,-0.17160,-0.01715,-0.04022
0.75712,0.25423,0.19087,9.85170,-0.14871,0.01866,0.02679
0.83667,0.26069,0.19542,9.80440,-0.16141,-0.00546,0.02051
0.90445,0.25751,0.20646,9.84790,-0.15317,0.01010,-0.01423
0.74765,0.24511,0.20484,9.80173,-0.13863,-0.00742,0.01559
0.31361,0.25765,0.18302,9.80890,-0.16626,-0.01505,0.00559
0.40689,0.25184,0.19316,9.77186,-0.14236,0.00032,-0.01081
0.65565,0.24753,0.18136,9.80032,-0.15646,0.02725,0.01743
0.36773,0.23749,0.19542,9.77493,-0.15523,0.01897,0.02801
0.46373,0.25881,0.18134,9.82061,-0.16711,0.00039,-0.01067
0.32858,0.24506,0.19913,9.82345,-0.15801,0.01277,0.00929
0.46862,0.24831,0.18619,9.78376,-0.15868,-0.01668,0.02331
0.54413,0.23675,0.21209,9.81868,-0.17946,0.01636,0.00762
0.53834,0.25701,0.17708,9.81820,-0.13123,-0.03763,-0.00089
0.80559,0.25941,0.19306,9.83243,-0.15184,0.00194,-0.00700
0.37311,0.24161,0.18865,9.79082,-0.14344,0.03039,0.00656
0.67940,0.24869,0.18572,9.81856,-0.16784,-0.00736,0.01462
0.57123,0.25019,0.19561,9.81803,-0.18331,-0.01898,-0.00982
0.54729,0.24253,0.18735,9.82299,-0.17046,-0.01522,0.04029
0.75042,0.25853,0.18677,9.77967,-0.14709,0.01940,-0.00577
0.27205,0.24689,0.21333,9.77611,-0.15146,-0.00468,0.03289
0.37218,0.23572,0.21571,9.82691,-0.16750,0.00357,-0.03579
0.57564,0.24848,0.20618,9.84313,-0.16730,0.00777,0.00117
0.36753,0.24837,0.20894,9.82095,-0.18107,-0.01820,0.00261
0.57050,0.23334,0.20646,9.79453,-0.15018,-0.02730,0.00074
0.36815,0.24781,0.18845,9.81622,-0.20817,0.01375,-0.02932
0.54870,0.24950,0.17742,9.81241,-0.17840,-0.00732,-0.02654
0.49994,0.23690,0.20954,9.78435,-0.18804,0.02476,-0.01473
0.38808,0.25298,0.18545,9.81719,-0.17901,-0.01735,-0.00431
0.81207,0.27098,0.19931,9.79946,-0.16181,-0.01564,-0.03454
0.60539,0.25365,0.20986,9.83370,-0.16681,-0.00296,-0.01099
0.55413,0.23477,0.19710,9.82963,-0.17329,0.00227,-0.01684
0.43708,0.23543,0.19741,9.78930,-0.18442,0.01624,-0.01261
0.54022,0.25155,0.16648,9.79072,-0.17291,-0.00520,-0.01016
0.52673,0.23970,0.19982,9.84465,-0.17249,-0.02182,0.01552
0.37782,0.23527,0.19454,9.83337,-0.18933,-0.00027,0.01815
0.48822,0.23321,0.19800,9.82694,-0.15257,0.00195,-0.01768
0.49404,0.26025,0.19768,9.81007,-0.16219,0.02670,0.01804
0.66520,0.24740,0.20900,9.80462,-0.16957,0.03735,0.01652
0.58616,0.23992,0.19500,9.80214,-0.16327,0.02820,-0.00413
0.78791,0.26245,0.21414,9.83176,-0.17183,-0.02096,0.04853
0.46099,0.23138,0.17702,9.82107,-0.19034,0.00971,0.00871
0.44870,0.25434,0.19856,9.79814,-0.16664,-0.01846,-0.03334
0.56790,0.24238,0.17666,9.80499,-0.14347,-0.03472,-0.02680
0.70402,0.25258,0.20430,9.81243,-0.16246,0.01148,-0.04435
0.45906,0.24254,0.19592,9.80672,-0.16718,-0.00743,0.03067
0.77202,0.23448,0.18934,9.82747,-0.17116,-0.00136,-0.00994
0.58217,0.22566,0.19797,9.81757,-0.14443,-0.00715,-0.01361
0.35077,0.22042,0.18538,9.79113,-0.18250,0.01127,0.01911
0.47327,0.23515,0.20784,9.83752,-0.17002,0.00930,0.01613
0.56327,0.24081,0.20668,9.80575,-0.19018,0.00085,0.00935
0.65922,0.24325,0.19047,9.82232,-0.11493,-0.01133,-0.00540
0.40108,0.22429,0.18581,9.82193,-0.17617,-0.02081,-0.01424
0.50766,0.25643,0.20696,9.84282,-0.18509,-0.01023,0.02256
0.55010,0.23074,0.17594,9.81841,-0.22022,0.01418,0.00725
0.63442,0.23389,0.20382,9.83047,-0.13896,-0.02163,0.01947
0.86050,0.24685,0.19018,9.80258,-0.23173,-0.05054,-0.02631
0.84828,0.23553,0.20096,9.78951,-0.18777,0.01618,0.01041
0.76746,0.22897,0.17532,9.79718,-0.17162,-0.00959,-0.02773
0.43500,0.25925,0.18555,9.80265,-0.16405,0.01073,-0.00839
0.57755,0.25175,0.21206,9.80769,-0.15616,-0.00401,0.02085
0.51626,0.24305,0.19143,9.76019,-0.16770,0.00512,0.00022
0.75027,0.21322,0.19675,9.80418,-0.19359,0.00772,-0.00215
0.75603,0.22989,0.18442,9.83265,-0.17710,-0.00250,-0.01646
0.55406,0.22168,0.18392,9.83404,-0.20977,-0.00210,-0.00927
0.39206,0.23532,0.21293,9.81022,-0.19099,0.01006,0.01802
0.53434,0.22724,0.19545,9.81876,-0.18655,-0.00611,0.01875
0.43307,0.23570,0.20269,9.77691,-0.17002,-0.00808,-0.02463
0.65746,0.23031,0.19266,9.82373,-0.19545,0.01377,-0.01233
0.44151,0.22810,0.18590,9.79446,-0.17659,-0.00121,-0.03080
0.38274,0.24489,0.19282,9.80639,-0.17907,0.01650,-0.01338
0.72486,0.23416,0.16109,9.78695,-0.16802,0.00881,0.01612
0.40397,0.22789,0.18030,9.83844,-0.19599,0.00113,-0.01226
0.83632,0.25869,0.19659,9.80057,-0.16986,0.00260,0.01594
0.77389,0.22022,0.18755,9.82740,-0.14748,-0.02269,0.02072
0.73720,0.22687,0.19336,9.81868,-0.15674,-0.00733,0.00543
0.52087,0.23891,0.17841,9.80288,-0.14839,-0.03809,0.02428
0.45769,0.23280,0.21086,9.79927,-0.21268,0.00094,0.03058
0.60018,0.23657,0.19034,9.80719,-0.17223,0.03505,0.03980
0.63037,0.23952,0.19718,9.78734,-0.20000,-0.02419,0.00552
0.75696,0.24544,0.19616,9.81939,-0.17535,0.00664,-0.01343
0.58868,0.22031,0.18896,9.81625,-0.19465,0.02622,-0.02268
0.42636,0.21903,0.19424,9.81017,-0.18680,-0.02711,-0.01245
0.60495,0.20721,0.19237,9.79767,-0.14969,0.00010,0.01605
0.62898,0.24146,0.21846,9.80312,-0.20579,0.00137,0.02226
0.39426,0.24088,0.19884,9.79467,-0.14578,-0.02671,0.00996
0.63742,0.24668,0.19516,9.79619,-0.20660,-0.00020,-0.00915
0.47827,0.22051,0.18635,9.81658,-0.17978,0.00361,-0.03492
0.80241,0.22654,0.22177,9.79486,-0.20987,-0.02898,0.00295
0.84414,0.21058,0.19809,9.80630,-0.17957,-0.00939,0.01617
0.72712,0.23296,0.18650,9.82289,-0.18894,-0.02029,0.01832
0.77957,0.24625,0.19199,9.84099,-0.18705,0.00817,0.03070
0.46453,0.23539,0.19694,9.79283,-0.20363,-0.00491,0.00516
0.83692,0.23465,0.19934,9.79956,-0.17125,-0.00405,-0.02217
0.91082,0.23270,0.18637,9.76952,-0.20811,0.00132,-0.01519
0.34882,0.22308,0.18854,9.77906,-0.15914,0.00823,0.00690
0.73430,0.24334,0.18982,9.81592,-0.18281,0.01366,0.00265
0.45530,0.21241,0.18726,9.80834,-0.16848,-0.00108,0.00406
0.79522,0.23461,0.19268,9.79315,-0.16713,-0.03456,-0.03918
0.42436,0.21614,0.19697,9.79500,-0.16766,-0.00437,-0.01472
0.75856,0.22747,0.18628,9.82068,-0.20037,0.00054,-0.04349
0.59951,0.23711,0.19589,9.83321,-0.18973,0.01056,-0.03373
0.56991,0.21972,0.19356,9.78431,-0.16046,-0.00562,-0.03509
0.80068,0.24512,0.20668,9.76150,-0.23533,0.00041,-0.03414
0.55489,0.23635,0.20683,9.78764,-0.20011,-0.00631,-0.01091
0.60203,0.21871,0.17753,9.80620,-0.19419,-0.00201,-0.00102
0.81112,0.22580,0.18793,9.81684,-0.19118,0.02953,-0.01025
0.71885,0.22628,0.18192,9.78481,-0.16400,0.00773,-0.00853
0.76724,0.23044,0.20829,9.81445,-0.17748,-0.02880,-0.04818
0.48408,0.22116,0.20155,9.81435,-0.18091,-0.01414,0.00728
0.86561,0.23292,0.20885,9.84252,-0.23290,0.01404,-0.01533
0.76168,0.22282,0.18518,9.79093,-0.19142,0.00539,0.01882
0.79906,0.22656,0.20869,9.79335,-0.17413,0.02328,0.01686
0.67881,0.22282,0.18624,9.83103,-0.14466,0.00581,-0.01797
0.47002,0.22968,0.21300,9.81164,-0.23108,0.02314,-0.02952
0.84013,0.20446,0.20280,9.78474,-0.12284,0.02478,0.01454
0.48543,0.22632,0.19278,9.83853,-0.20470,0.00987,0.00016
0.40256,0.23022,0.20782,9.81055,-0.20724,0.01297,-0.03797
0.68224,0.22878,0.19842,9.82028,-0.15275,-0.02021,-0.00184
0.37255,0.22449,0.19174,9.82228,-0.18086,-0.00967,0.02630
0.84371,0.22945,0.19693,9.79244,-0.19716,-0.00339,0.03071
0.29603,0.21071,0.20451,9.79841,-0.20341,0.04247,0.00400
0.36501,0.21971,0.16681,9.81871,-0.18656,-0.01949,0.01806
0.70245,0.21552,0.20554,9.81859,-0.20826,-0.01059,-0.01587
0.66338,0.20831,0.19497,9.77091,-0.19794,0.01328,0.03274
0.47011,0.22302,0.19734,9.77564,-0.17922,0.01131,0.00880
0.40115,0.21131,0.20981,9.80516,-0.22933,-0.00328,0.02514
0.35646,0.20554,0.20209,9.76898,-0.22598,0.04249,0.00928
0.54370,0.22018,0.19748,9.82012,-0.16921,0.00757,0.00928
0.65827,0.20876,0.19612,9.78455,-0.23100,-0.01941,-0.01023
0.41073,0.20890,0.20118,9.82092,-0.19941,-0.04509,-0.02202
0.48922,0.22132,0.18440,9.78187,-0.21394,-0.00902,-0.01593
0.62904,0.22064,0.17904,9.76967,-0.19529,0.01023,-0.00936
0.63284,0.21088,0.21474,9.80249,-0.18566,0.00828,-0.00082
0.80005,0.21602,0.22898,9.78392,-0.19305,0.03602,0.00065
0.74366,0.20777,0.20604,9.83295,-0.17405,-0.03545,-0.00563
0.52354,0.23976,0.18579,9.80627,-0.19700,0.00708,-0.01844
0.78520,0.21541,0.18956,9.83564,-0.21682,0.01016,-0.01256
0.89135,0.21241,0.21705,9.77882,-0.18977,-0.01391,0.03095
0.33582,0.21463,0.20807,9.79290,-0.16581,-0.03835,-0.03301
0.32611,0.21739,0.20283,9.77945,-0.19089,-0.04599,0.00166
0.72275,0.20902,0.19951,9.81387,-0.21504,0.01566,-0.00367
0.85901,0.22526,0.20077,9.80607,-0.23678,0.01040,0.00020
0.36744,0.21171,0.19970,9.79440,-0.22543,-0.00899,-0.01425
0.37394,0.20214,0.22052,9.83380,-0.19399,-0.00974,-0.00823
0.58779,0.21660,0.19233,9.78406,-0.20425,0.02186,-0.02152
0.77743,0.20537,0.22314,9.85191,-0.23166,-0.01635,-0.02622
0.72962,0.22549,0.17346,9.78487,-0.19699,0.01074,-0.01215
0.73197,0.21936,0.18504,9.80897,-0.18131,-0.04893,0.00801
0.78820,0.21205,0.20715,9.78511,-0.22716,0.02768,0.02118
0.68973,0.20410,0.18689,9.82702,-0.19395,-0.00889,-0.02145
0.76023,0.22342,0.19178,9.83514,-0.18893,-0.01915,0.02294
0.82463,0.21526,0.19519,9.79154,-0.20285,-0.03799,-0.02179
0.85330,0.21566,0.18256,9.81514,-0.24176,0.02554,0.00415
0.32309,0.20837,0.21135,9.79280,-0.21790,-0.03858,-0.00082
0.54336,0.21702,0.19431,9.80410,-0.21105,-0.05927,0.01593
0.46162,0.20264,0.19721,9.78504,-0.22230,0.01823,-0.02134
0.83678,0.21451,0.18852,9.78557,-0.23571,0.00741,-0.01231
0.82294,0.21809,0.19006,9.79669,-0.22696,0.00023,-0.01161
0.73498,0.19755,0.21022,9.83660,-0.23487,0.01708,-0.00447
0.32878,0.19716,0.19168,9.78560,-0.21372,-0.02484,-0.02472
0.43762,0.21896,0.20292,9.82458,-0.22934,-0.00266,0.03162
0.58376,0.22088,0.21554,9.84030,-0.19894,-0.03841,-0.00708
0.37433,0.21774,0.19563,9.83438,-0.20938,-0.00792,-0.01390
0.62527,0.18182,0.19589,9.82430,-0.22444,-0.01118,0.01490
0.31363,0.19174,0.18333,9.78825,-0.20347,-0.01876,-0.00856
0.78420,0.19909,0.21699,9.77416,-0.21738,-0.03132,0.03584
0.45404,0.19088,0.21135,9.82621,-0.22385,-0.03139,0.03940
0.41801,0.18270,0.19598,9.83486,-0.17853,0.04075,0.00508
0.56219,0.19788,0.21248,9.78467,-0.23714,-0.00583,-0.02819
0.65472,0.20355,0.19282,9.80703,-0.23526,-0.01592,-0.04556
0.42212,0.19236,0.19108,9.82729,-0.21183,0.00762,-0.00837
0.73841,0.21029,0.17383,9.78940,-0.22310,-0.03132,-0.03117
0.86745,0.21052,0.19521,9.78625,-0.21164,-0.00817,-0.01595
0.67632,0.18626,0.20351,9.82961,-0.22660,-0.01579,0.02741
0.72844,0.19973,0.19976,9.83731,-0.22357,-0.03182,-0.00602
0.73974,0.21614,0.19620,9.79744,-0.20785,0.02630,-0.01009
0.35378,0.21456,0.19153,9.82879,-0.22653,-0.02582,0.01694
0.37814,0.20564,0.18626,9.83475,-0.20355,-0.01621,0.00810
0.45456,0.21566,0.19462,9.79216,-0.19271,-0.00402,-0.00061
0.67063,0.20082,0.19166,9.81869,-0.19735,-0.00557,0.01970
0.31717,0.21153,0.18870,9.84168,-0.26018,0.01050,0.02580
0.41271,0.20956,0.21126,9.77821,-0.24305,-0.01532,0.02430
0.80806,0.20269,0.20105,9.81209,-0.22671,0.02411,0.00599
0.90862,0.19325,0.19283,9.82537,-0.22988,0.01025,-0.04265
0.59361,0.17210,0.17513,9.85131,-0.24555,0.02271,-0.01093
0.52389,0.20076,0.18743,9.80390,-0.23299,0.01106,0.00532
0.53080,0.18479,0.21333,9.84211,-0.24083,0.02645,-0.01686
0.82315,0.20552,0.19148,9.79495,-0.24956,-0.00447,-0.01962
0.62384,0.20080,0.20441,9.79742,-0.21982,0.01980,-0.00724
0.56490,0.19887,0.20623,9.82565,-0.23760,-0.01087,0.03429
0.76084,0.19358,0.18444,9.85679,-0.21219,-0.00935,0.02492
0.81257,0.19329,0.19524,9.78533,-0.20878,0.00497,0.01953
0.37923,0.20603,0.17799,9.80825,-0.24965,0.00838,0.01733
0.72723,0.19397,0.21618,9.79694,-0.22748,-0.00757,0.00391
0.69729,0.21854,0.19833,9.81834,-0.19654,0.00173,-0.00089
0.45892,0.17833,0.22548,9.80423,-0.21735,-0.01710,0.00317
0.37985,0.19571,0.21100,9.82546,-0.24075,-0.03607,-0.01712
0.68721,0.21473,0.19549,9.79410,-0.23449,-0.01930,-0.01383
0.84898,0.19937,0.18560,9.78730,-0.24372,-0.02444,0.01884
0.56209,0.18824,0.19298,9.80247,-0.20858,-0.01335,0.00724
0.88237,0.19334,0.21130,9.82827,-0.23633,-0.01595,-0.00370
0.64990,0.19678,0.20539,9.77276,-0.20391,-0.00783,-0.01043
0.89747,0.18853,0.19716,9.81506,-0.19092,0.01357,0.03108
0.78528,0.20670,0.19111,9.81421,-0.23348,-0.00331,0.03120
0.39956,0.19470,0.20474,9.76576,-0.24945,-0.02662,0.04117
0.84523,0.19761,0.19012,9.79432,-0.21984,0.01363,0.01175
0.42157,0.18597,0.18728,9.81524,-0.23513,0.00065,0.02452
0.66616,0.21171,0.21054,9.82060,-0.25082,0.01326,-0.00897
0.85140,0.18731,0.20036,9.82160,-0.22139,-0.01889,0.01747
0.78941,0.18576,0.19857,9.83778,-0.23777,-0.00305,-0.02610
0.82694,0.18542,0.18991,9.79370,-0.24542,-0.00037,-0.03031
0.63409,0.21464,0.17480,9.82253,-0.21697,0.02035,-0.00713
0.69086,0.20168,0.21963,9.85134,-0.23168,-0.00278,0.00303
0.79699,0.19808,0.19333,9.78578,-0.22883,0.02008,0.01001
0.84938,0.17984,0.20134,9.80775,-0.25360,-0.01453,0.01226
0.46980,0.19815,0.19832,9.82345,-0.22758,0.01226,0.02057
0.65039,0.19849,0.18904,9.81180,-0.25306,-0.00856,-0.01090
0.40735,0.19709,0.19056,9.84596,-0.22865,-0.02763,0.01329
0.63541,0.19300,0.20466,9.79746,-0.23463,-0.02882,0.01079
0.52362,0.18027,0.19614,9.78426,-0.22223,0.01683,0.00264
0.53376,0.16710,0.20043,9.84156,-0.19999,-0.01879,0.04254
0.66363,0.16613,0.18863,9.77854,-0.23186,0.00135,0.00427
0.80655,0.17777,0.21637,9.81333,-0.22349,0.00883,0.03730
0.54004,0.17861,0.20188,9.78998,-0.23947,-0.01585,0.02064
0.85579,0.19137,0.20499,9.78281,-0.24061,0.01382,0.02126
0.61218,0.18342,0.21902,9.77889,-0.24111,-0.00965,-0.03158
0.39275,0.17750,0.20320,9.81192,-0.23207,-0.01399,-0.03416
0.84765,0.18108,0.21743,9.77723,-0.21146,-0.00852,0.04469
0.79279,0.18882,0.19885,9.80381,-0.21716,0.03714,0.05078
0.74967,0.16128,0.18983,9.83847,-0.22857,-0.00264,-0.02862
0.28800,0.19126,0.19004,9.82901,-0.20265,0.00578,0.01516
0.63229,0.17699,0.19934,9.80635,-0.23584,0.01707,-0.02022
0.33099,0.18247,0.17975,9.80210,-0.23521,-0.01004,-0.00335
0.86379,0.17065,0.20637,9.81236,-0.22148,-0.01104,0.02910
0.72481,0.17250,0.21215,9.83122,-0.26577,-0.01528,0.01008
0.86085,0.16893,0.18883,9.81110,-0.19986,-0.02321,0.02552
0.50622,0.17610,0.19643,9.82350,-0.27211,0.00615,0.00490
0.54443,0.19544,0.20031,9.77073,-0.23548,0.00020,0.01416
0.63263,0.18806,0.20839,9.82535,-0.25513,0.02459,-0.02509
0.38599,0.19072,0.20190,9.84146,-0.23168,0.00428,0.00167
0.77443,0.17986,0.19994,9.82544,-0.23121,-0.02235,-0.00417
0.44558,0.17812,0.19999,9.82517,-0.25782,-0.03579,0.01185
0.30859,0.18176,0.20271,9.82546,-0.22055,0.03058,-0.00529
0.73316,0.18136,0.18332,9.86599,-0.22562,0.02421,-0.02270
0.58912,0.17571,0.20709,9.82471,-0.26986,-0.02864,-0.00557
0.88053,0.19442,0.20013,9.81285,-0.25917,0.02697,-0.02692
0.32274,0.17873,0.18103,9.84293,-0.23882,0.02265,0.01402
0.83031,0.18848,0.19524,9.80336,-0.24458,0.03815,-0.03137
0.59829,0.15957,0.19689,9.78092,-0.17286,0.00975,0.02476
0.31215,0.18510,0.17486,9.82082,-0.21164,-0.04401,-0.04172
0.58101,0.18625,0.20986,9.80610,-0.24027,0.01117,0.01341
0.03107,0.16797,0.21453,9.81310,-0.24919,-0.01047,-0.01064
0.01082,0.17063,0.20051,9.80782,-0.23941,-0.01326,0.01066
0.02996,0.17248,0.18094,9.81271,-0.28753,0.01987,0.02831
0.06129,0.17791,0.19605,9.79989,-0.22314,-0.00358,0.01420
0.05016,0.16412,0.20550,9.81140,-0.22848,0.02369,-0.00852
-0.00073,0.17913,0.20288,9.80427,-0.27991,0.01262,-0.01448
0.06419,0.17737,0.19103,9.81683,-0.25107,0.01294,0.01200
0.02999,0.19011,0.19397,9.78531,-0.25352,-0.00641,0.01148
0.00647,0.18514,0.20410,9.80740,-0.25718,-0.00810,0.00982
0.00811,0.18390,0.19847,9.83748,-0.22635,-0.00587,-0.00577
-0.00392,0.15900,0.20463,9.80592,-0.27838,0.01082,0.00412
0.00375,0.17328,0.19419,9.81061,-0.21740,-0.01741,0.03302
0.03917,0.17723,0.18468,9.86256,-0.26560,-0.01517,0.01294
0.01799,0.16636,0.19416,9.80661,-0.27870,0.01215,0.03370
0.02878,0.15998,0.19770,9.80731,-0.24729,0.01113,0.02868
0.04247,0.17959,0.20241,9.81954,-0.25286,-0.01790,-0.01810
0.03332,0.16459,0.19593,9.82590,-0.25302,-0.02116,0.00546
0.05264,0.18330,0.21125,9.79185,-0.25355,-0.01273,0.02929
0.01162,0.15815,0.19009,9.82085,-0.24486,-0.00455,-0.00530
0.05733,0.17073,0.19488,9.80783,-0.25827,0.00690,0.00293
-0.02743,0.16444,0.19874,9.84338,-0.23023,-0.00314,-0.02845
0.04717,0.15573,0.19377,9.79738,-0.26401,0.02092,0.03077
0.03005,0.16863,0.20379,9.80179,-0.24671,0.02871,-0.00614
0.03796,0.16712,0.20011,9.81282,-0.23464,0.02322,0.03310
0.01515,0.18135,0.19627,9.80654,-0.24691,-0.02317,-0.01495
0.00445,0.17883,0.20056,9.81676,-0.22388,0.03108,0.00140
0.00353,0.18128,0.20079,9.82187,-0.29299,-0.01003,-0.00059
0.01544,0.15924,0.19685,9.81819,-0.22386,-0.00901,0.01535
0.03482,0.17032,0.21064,9.81490,-0.26413,-0.01950,-0.01061
0.02339,0.16990,0.18176,9.81941,-0.25998,-0.03000,-0.01416
0.02086,0.14542,0.20121,9.79277,-0.22431,0.00940,-0.03793
0.00563,0.15498,0.19671,9.81265,-0.23865,-0.01184,0.02034
0.03245,0.15232,0.18437,9.83122,-0.23115,-0.01092,-0.02923
0.01468,0.16651,0.19580,9.81036,-0.25123,0.00628,0.00125
0.01532,0.16245,0.18214,9.82093,-0.24299,-0.00218,-0.01947
0.06537,0.16152,0.18771,9.80455,-0.22342,-0.00157,0.00510
0.03249,0.17022,0.22342,9.78637,-0.24358,-0.00518,-0.03224
0.00141,0.17817,0.18154,9.81446,-0.24384,-0.00347,-0.02177
0.03617,0.15333,0.21014,9.81364,-0.22450,0.01188,0.00433
0.04599,0.17080,0.19987,9.79788,-0.25039,0.04253,0.00355
0.07427,0.15490,0.19345,9.77914,-0.24868,0.01508,-0.02441
-0.02459,0.15292,0.18049,9.81601,-0.25371,-0.03637,-0.01526
0.02144,0.14232,0.19391,9.77782,-0.25576,0.00838,-0.02492
0.05880,0.14381,0.21286,9.80628,-0.27873,-0.01228,0.02579
0.01031,0.15382,0.21446,9.80647,-0.23638,0.02392,0.02306
0.00802,0.16222,0.19646,9.80978,-0.24367,0.02564,-0.01312
-0.00077,0.15401,0.20456,9.79828,-0.20517,-0.02798,0.01120
0.04843,0.15666,0.17800,9.76078,-0.27962,0.00980,-0.03601
0.04525,0.13844,0.21003,9.80851,-0.28128,-0.00321,-0.00075
0.06855,0.15552,0.18239,9.81544,-0.27808,-0.01738,0.03386
0.04865,0.15141,0.20052,9.79725,-0.26795,0.01648,0.00009
0.02473,0.13755,0.20300,9.82022,-0.26394,0.03553,0.00013
0.03884,0.15881,0.21958,9.83146,-0.25524,0.02039,0.01138
-0.00435,0.15578,0.19558,9.81997,-0.25456,0.01360,0.03182
0.01608,0.17907,0.18930,9.81886,-0.28214,0.01771,-0.00615
0.04009,0.14209,0.20341,9.78263,-0.25328,0.02245,0.00605
0.01382,0.15599,0.19156,9.77215,-0.27580,0.01661,0.02494
0.05125,0.13751,0.21910,9.80530,-0.25721,0.02244,0.00556
0.01743,0.15489,0.21157,9.82599,-0.26744,-0.04416,-0.03192
0.03158,0.15515,0.19739,9.79728,-0.22574,0.00854,-0.01106
0.03778,0.15246,0.20901,9.78353,-0.23829,-0.00854,-0.02231
0.03562,0.13435,0.21239,9.80640,-0.26366,-0.02658,-0.01587
0.04336,0.14651,0.20201,9.82414,-0.26342,0.00841,0.02147
0.05247,0.14985,0.19780,9.81584,-0.29473,0.02851,-0.01927
0.02380,0.15883,0.18983,9.77472,-0.25629,0.02150,-0.01341
-0.02392,0.16064,0.21033,9.83430,-0.26787,-0.01769,0.00725
0.06017,0.15128,0.19284,9.78336,-0.24186,0.01404,-0.00461
0.05278,0.15647,0.20087,9.82785,-0.26585,-0.03652,0.02607
0.04941,0.14532,0.20460,9.83212,-0.27123,-0.01869,0.01933
0.02247,0.16463,0.20498,9.81814,-0.24138,-0.01353,-0.00532
0.04025,0.15964,0.20130,9.81049,-0.25827,-0.00950,-0.01338
-0.00766,0.15165,0.19410,9.84488,-0.27979,0.00409,-0.01227
0.02019,0.14789,0.18703,9.82835,-0.29594,-0.00929,0.00633
0.03858,0.14929,0.19496,9.75108,-0.26625,-0.01378,-0.00608
0.04773,0.13846,0.19905,9.82542,-0.24173,0.00779,0.02395
-0.00946,0.13514,0.17749,9.78887,-0.24444,0.02228,-0.02466
-0.00772,0.13397,0.20890,9.79145,-0.26158,-0.01169,-0.01339
0.02860,0.14296,0.19891,9.81770,-0.25880,0.00872,-0.00706
0.02060,0.15215,0.18021,9.81802,-0.24768,-0.00846,-0.01737
0.02033,0.15578,0.19410,9.77945,-0.23610,-0.01163,-0.02856
0.01948,0.13499,0.18785,9.79991,-0.24338,0.01255,-0.01324
0.05412,0.14354,0.20583,9.80780,-0.24675,-0.01727,-0.00147
0.06375,0.13609,0.19298,9.82393,-0.25228,-0.02147,-0.01330
0.03598,0.13355,0.18356,9.81846,-0.27052,0.00209,-0.01659
0.01948,0.15195,0.19023,9.84226,-0.27455,-0.00607,-0.00650
-0.00620,0.14683,0.21496,9.81615,-0.27515,-0.01408,-0.01875
0.00655,0.14235,0.18669,9.79968,-0.24769,0.02171,-0.00083
0.09151,0.14196,0.19792,9.82746,-0.22121,0.01980,-0.00965
0.03079,0.13670,0.19193,9.80452,-0.24463,0.00665,0.02672
0.02620,0.13651,0.20131,9.81794,-0.24772,0.00212,-0.00635
0.03610,0.15234,0.19601,9.84477,-0.23791,-0.01371,0.01178
0.07245,0.14856,0.19861,9.79856,-0.27670,-0.01309,0.00618
0.01932,0.13571,0.17992,9.79755,-0.25086,0.02071,-0.00574
0.05204,0.14174,0.19207,9.77298,-0.29897,0.02760,0.01781
0.04151,0.14972,0.21401,9.83186,-0.26198,0.02182,0.00624
0.03226,0.14362,0.20270,9.80054,-0.24165,-0.01602,-0.01160
0.02808,0.13988,0.19557,9.78898,-0.26778,-0.01966,-0.01467
0.01830,0.13421,0.21859,9.77474,-0.26478,-0.01744,-0.00264
0.00144,0.12393,0.19055,9.79801,-0.27469,-0.02596,-0.00614
0.02016,0.13850,0.20651,9.79748,-0.25859,-0.00366,0.01402
0.02866,0.13620,0.20502,9.80408,-0.27440,-0.02076,0.00615
0.00648,0.12684,0.20606,9.80292,-0.31075,0.01298,0.00818
-0.02387,0.16036,0.19215,9.81163,-0.25028,-0.02289,-0.02962
0.01911,0.14397,0.19694,9.81058,-0.27661,0.00760,-0.00444
0.04359,0.13537,0.20819,9.80090,-0.27875,0.03811,-0.00793
0.06567,0.12912,0.20943,9.81100,-0.25962,0.02761,0.00939
0.08419,0.12646,0.20387,9.83252,-0.22891,-0.01513,0.00313
0.05705,0.13198,0.19459,9.83963,-0.24683,0.00446,0.00928
0.03106,0.11645,0.21155,9.84799,-0.26892,0.00265,0.02097
0.00350,0.14377,0.19979,9.82009,-0.26544,0.01111,0.00348
0.04345,0.11712,0.19102,9.80275,-0.26908,0.01241,0.01165
0.04383,0.13128,0.19455,9.80951,-0.26914,-0.03474,0.00874
0.01559,0.13841,0.18824,9.82386,-0.22326,-0.01130,-0.01657
0.05822,0.13027,0.18160,9.78975,-0.27303,-0.02353,-0.00047
0.04639,0.14296,0.19264,9.82245,-0.28658,-0.01258,-0.01376
0.03803,0.13007,0.20002,9.78378,-0.25919,0.02411,0.03197
0.03857,0.11460,0.19592,9.82418,-0.25636,0.00147,-0.02143
0.03763,0.10846,0.20283,9.78981,-0.26610,0.04608,0.01541
0.05671,0.12433,0.20892,9.81733,-0.29307,0.01904,-0.02468
0.03662,0.11646,0.19746,9.84688,-0.28749,-0.01849,0.00240
0.03143,0.12455,0.20398,9.80944,-0.27528,-0.01538,0.01388
0.03280,0.13701,0.19992,9.81667,-0.29284,-0.01181,-0.01135
0.00633,0.12599,0.18768,9.81873,-0.27138,-0.00541,0.00592
0.00023,0.15006,0.20917,9.82778,-0.28002,-0.01147,-0.01823
0.03549,0.13120,0.20222,9.80550,-0.28718,0.01335,0.01641
0.04803,0.12970,0.21062,9.77750,-0.25393,0.01458,0.02052
0.02324,0.12467,0.21653,9.82600,-0.27487,0.02285,0.02057
0.05350,0.13480,0.19314,9.82945,-0.26215,0.02235,-0.01637
0.07388,0.10385,0.19781,9.83554,-0.24487,-0.02354,-0.01435
0.05667,0.11418,0.18195,9.78439,-0.28943,0.01200,-0.03257
0.03082,0.11335,0.19518,9.85697,-0.29019,0.05100,0.00648
0.03240,0.12518,0.19117,9.82142,-0.29636,0.00787,-0.01165
0.03244,0.12357,0.20868,9.82452,-0.29528,0.02499,-0.01568
0.02615,0.12785,0.20828,9.81667,-0.27722,-0.01641,0.03862
0.03267,0.11613,0.19606,9.81084,-0.26492,-0.00383,0.00369
0.07070,0.13388,0.19508,9.77777,-0.25257,-0.00624,0.02675
0.02956,0.12807,0.19557,9.81581,-0.24354,0.01759,0.02490
0.03111,0.14231,0.21307,9.82032,-0.30176,0.00129,-0.00007
0.05869,0.14106,0.18837,9.83260,-0.26623,-0.01666,-0.00517
0.03927,0.11793,0.20104,9.75831,-0.30478,-0.02795,-0.02444
0.03037,0.12759,0.20335,9.80961,-0.29835,-0.01531,-0.03726
0.01737,0.13096,0.20401,9.80820,-0.24685,-0.00278,-0.00855
0.03129,0.11564,0.20746,9.78631,-0.28807,-0.03430,-0.01506
0.04231,0.11479,0.18888,9.81513,-0.28960,0.01713,-0.00166
0.02546,0.12281,0.20091,9.81674,-0.28460,-0.00524,0.01702
0.03315,0.13207,0.20627,9.79996,-0.30058,-0.00419,-0.02097
-0.01079,0.09746,0.18604,9.80144,-0.26376,-0.00526,-0.00517
0.02057,0.11718,0.20210,9.84841,-0.26895,-0.00018,0.01285
0.01896,0.10698,0.19642,9.79289,-0.26486,0.01319,0.02050
0.02009,0.12614,0.19213,9.80924,-0.27931,0.01029,-0.04860
-0.03202,0.11701,0.21108,9.84332,-0.27546,0.02717,0.04204
0.02500,0.09919,0.20716,9.78864,-0.30053,0.00600,-0.01837
-0.02200,0.11570,0.19182,9.80991,-0.29206,0.02547,-0.00200
0.00729,0.13770,0.17838,9.78906,-0.29558,-0.04489,0.01945
0.00840,0.11727,0.18682,9.80274,-0.27766,-0.00603,-0.01015
0.05157,0.11533,0.18778,9.84319,-0.30992,0.02351,-0.01408
0.01128,0.12422,0.19072,9.81530,-0.28148,-0.00459,0.00557
0.06560,0.11033,0.21100,9.85770,-0.26599,-0.01910,0.00631
0.06271,0.10646,0.19605,9.84630,-0.29847,-0.00599,-0.04939
0.03830,0.10520,0.19218,9.80476,-0.28258,0.01382,-0.00097
0.03252,0.11504,0.20165,9.86996,-0.29550,-0.00665,-0.01284
0.03182,0.12243,0.20572,9.81386,-0.28045,0.02280,0.02424
0.00635,0.09687,0.18005,9.83200,-0.27587,0.01147,0.03790
0.05096,0.09673,0.19550,9.86180,-0.25563,0.02738,-0.02800
0.01738,0.12580,0.20544,9.76379,-0.27004,-0.00213,-0.00970
0.04105,0.11010,0.18783,9.83138,-0.25918,-0.00148,0.00821
0.02670,0.11549,0.20780,9.85470,-0.28676,-0.04346,-0.03843
0.00175,0.11310,0.19855,9.79671,-0.25978,-0.00487,-0.01220
0.04559,0.09742,0.19353,9.82676,-0.27990,-0.00934,-0.03644
0.01852,0.11151,0.21212,9.81488,-0.31330,0.05754,0.02572
-0.00257,0.08741,0.18172,9.81121,-0.30242,0.01866,0.00184
0.03415,0.11477,0.19911,9.85648,-0.28441,-0.01232,-0.01667
0.07921,0.10119,0.21545,9.82964,-0.30223,-0.01439,0.00804
0.03705,0.12061,0.19851,9.79489,-0.25755,0.03719,0.00770
0.01038,0.12128,0.19358,9.84810,-0.26539,0.00572,0.01058
0.02032,0.09946,0.20288,9.79896,-0.26405,0.02197,0.01109
0.01120,0.11109,0.22685,9.81803,-0.29643,0.02786,0.03159
-0.00076,0.10842,0.19132,9.82295,-0.27296,-0.02105,0.03621
0.02890,0.11978,0.19988,9.82598,-0.26820,-0.02122,-0.03828
0.02918,0.08938,0.19499,9.80386,-0.29774,-0.01591,-0.00543
0.04194,0.09856,0.20808,9.79981,-0.29092,-0.01326,0.00715
0.04589,0.09696,0.19647,9.78772,-0.27918,-0.01607,0.01914
0.00133,0.09363,0.20012,9.80204,-0.26839,0.02520,-0.03643
0.01705,0.10710,0.19974,9.80683,-0.29451,0.03851,-0.01059
0.03235,0.09961,0.19110,9.80770,-0.27331,-0.03326,0.00963
0.04006,0.10283,0.21340,9.81866,-0.26014,-0.01137,0.01690
0.04667,0.09441,0.19914,9.84938,-0.26841,0.01473,-0.01399
0.02549,0.09295,0.20267,9.80981,-0.27289,0.01147,0.02622
0.01352,0.09322,0.23338,9.82773,-0.28456,-0.03241,-0.00430
0.01176,0.11012,0.19575,9.79162,-0.30961,0.00160,-0.00292
0.02123,0.10240,0.19624,9.77536,-0.27178,-0.01302,-0.02490
0.05096,0.09029,0.20140,9.80100,-0.29419,-0.02439,0.03220
0.02859,0.08625,0.20926,9.80326,-0.28441,0.02131,0.01895
0.06929,0.09556,0.18689,9.81277,-0.27501,-0.00378,0.01588
0.02302,0.08400,0.19938,9.80267,-0.30074,0.00480,0.00215
0.05414,0.10852,0.17733,9.80718,-0.26187,-0.00991,0.00406
0.02637,0.08656,0.21173,9.80785,-0.29175,-0.00870,-0.00213
0.04178,0.11010,0.21070,9.79286,-0.28666,-0.00593,0.00410
0.07719,0.10681,0.19903,9.82497,-0.24036,-0.01217,0.01613
0.02216,0.10541,0.19250,9.81163,-0.28540,0.01721,-0.00458
0.01125,0.08827,0.20570,9.81012,-0.27203,0.01078,0.00135
0.02399,0.08006,0.19189,9.78544,-0.33002,-0.01724,-0.00749
-0.00340,0.07685,0.19022,9.84523,-0.30660,0.02641,-0.02283
0.02320,0.07710,0.19332,9.84391,-0.26006,0.00470,0.03986
-0.03543,0.10816,0.21274,9.82332,-0.26456,-0.00325,0.02154
0.04621,0.09665,0.20358,9.82787,-0.29612,0.02866,-0.00157
0.04863,0.08713,0.21139,9.79729,-0.27354,0.00842,-0.02701
0.02396,0.09007,0.21055,9.80795,-0.27440,0.00149,-0.03227
-0.01944,0.09104,0.20513,9.76991,-0.26731,0.01393,0.00339
0.04097,0.08082,0.17717,9.81053,-0.31209,0.01681,0.02814
0.01771,0.08164,0.20579,9.84478,-0.28614,0.00605,0.01609
0.05478,0.08666,0.20265,9.78362,-0.27821,0.03154,0.00632
0.01423,0.09969,0.20056,9.77214,-0.31478,0.01268,0.00590
0.01616,0.08802,0.20160,9.82745,-0.25285,-0.00739,0.00404
0.03828,0.09090,0.18503,9.82239,-0.27139,0.02735,-0.00938
-0.00950,0.09672,0.19146,9.83579,-0.29372,-0.01059,0.01925
0.01547,0.07720,0.20161,9.83133,-0.26966,0.03361,-0.01639
0.03908,0.10096,0.19128,9.81677,-0.29904,-0.00971,0.03302
0.05114,0.09164,0.20079,9.80003,-0.25699,0.01084,-0.03858
0.02355,0.07263,0.20820,9.80139,-0.32378,0.01190,0.00410
0.04576,0.07653,0.21807,9.82240,-0.29565,-0.00213,-0.00811
0.02873,0.08962,0.20362,9.77423,-0.29957,0.02234,0.00634
0.06271,0.09629,0.19795,9.80179,-0.27541,0.01731,-0.02502
0.03073,0.08295,0.18823,9.78375,-0.34551,-0.00272,0.00442
0.04449,0.08432,0.21733,9.81552,-0.27128,0.00334,0.00172
-0.00372,0.08699,0.20256,9.81870,-0.29138,0.00522,-0.02434
0.03390,0.06473,0.18674,9.79048,-0.27159,-0.00126,-0.01672
-0.00130,0.07838,0.20741,9.82356,-0.26784,0.01777,0.02380
0.02557,0.09181,0.20000,9.79865,-0.28168,-0.01475,-0.00425
0.02231,0.08987,0.20205,9.83668,-0.28480,0.01556,0.00027
0.01206,0.08663,0.19161,9.82842,-0.30939,-0.00382,-0.01353
0.01382,0.07775,0.20652,9.79720,-0.26299,-0.02477,0.02767
0.03441,0.08024,0.19627,9.78269,-0.27671,0.00447,-0.03327
0.05281,0.06476,0.18752,9.83783,-0.28675,-0.03097,-0.03568
0.04565,0.08061,0.19906,9.81617,-0.27553,0.01387,0.00524
0.02280,0.07583,0.19923,9.79910,-0.30096,0.00778,-0.00978
-0.00278,0.07658,0.18972,9.80808,-0.28797,-0.02443,0.01453
0.02584,0.09006,0.20560,9.79774,-0.30160,0.01242,0.02288
0.03259,0.06529,0.20348,9.82252,-0.31817,0.01534,-0.02175
0.05452,0.07693,0.20782,9.81146,-0.29861,0.02602,-0.02653
0.04351,0.07343,0.18926,9.83637,-0.28865,-0.04007,0.01961
0.02721,0.06998,0.19131,9.80320,-0.30593,0.04260,-0.01116
0.03248,0.07856,0.19258,9.81858,-0.29742,0.02534,0.00938
0.02075,0.07541,0.18342,9.79274,-0.27216,-0.01254,-0.00008
0.01818,0.09608,0.18103,9.81808,-0.26276,0.01151,0.02963
0.02385,0.07671,0.19358,9.82185,-0.29801,0.00177,-0.01865
0.03901,0.08049,0.19692,9.79062,-0.28932,0.01087,0.00714
0.03833,0.05558,0.19687,9.81583,-0.31577,-0.01044,-0.00825
0.02376,0.06602,0.20161,9.82994,-0.29783,0.01283,0.02904
0.01024,0.09196,0.19343,9.79191,-0.30693,0.00094,-0.01779
0.00379,0.07278,0.18892,9.82397,-0.26401,-0.03181,0.01276
0.04047,0.07196,0.19947,9.83721,-0.27023,0.00798,0.00677
0.04623,0.06563,0.19141,9.82576,-0.29650,-0.01497,-0.01167
0.07295,0.06697,0.18930,9.83786,-0.29150,0.00433,0.01866
0.04337,0.07072,0.19810,9.81711,-0.27467,0.01708,0.00225
0.01489,0.06921,0.20948,9.77222,-0.28684,-0.02877,-0.01740
0.04255,0.08130,0.21230,9.80020,-0.30017,-0.00029,-0.01723
0.03299,0.08627,0.21231,9.79673,-0.32963,-0.00660,0.02330
0.02654,0.04750,0.18772,9.78463,-0.30474,0.01986,-0.01694
0.05178,0.08059,0.20398,9.81781,-0.28565,0.00072,-0.00374
0.03762,0.09390,0.19289,9.80829,-0.32489,0.02637,0.03441
0.03717,0.07119,0.20866,9.79585,-0.26299,0.01005,0.00730
0.03656,0.05885,0.20449,9.78825,-0.28239,0.02381,-0.03862
0.03129,0.04403,0.19148,9.76839,-0.33274,0.00811,-0.01445
0.05661,0.06922,0.18286,9.79806,-0.25852,-0.00324,-0.00809
0.05319,0.07704,0.19109,9.78987,-0.29694,0.00682,0.02797
0.04005,0.06591,0.18907,9.83227,-0.25644,0.00421,-0.06311
0.02949,0.06977,0.20289,9.76822,-0.31446,-0.00484,-0.02143
0.02982,0.05222,0.18896,9.79495,-0.27402,-0.00738,-0.02578
0.01548,0.05085,0.18393,9.78877,-0.31992,-0.00075,-0.03001
0.04311,0.05736,0.19408,9.80844,-0.28826,-0.02574,-0.01694
-0.00024,0.05268,0.19630,9.81584,-0.33525,-0.03213,-0.01499
0.08097,0.05379,0.21450,9.83407,-0.28897,-0.01330,0.00660
-0.00608,0.03600,0.18970,9.83627,-0.28463,0.02529,0.00367
0.00558,0.05043,0.18133,9.83084,-0.30191,-0.00962,0.00546
0.06994,0.06037,0.21319,9.79649,-0.26803,0.02426,-0.01586
0.01292,0.05618,0.19792,9.80859,-0.28747,-0.01487,0.01838
0.02758,0.04297,0.17547,9.83113,-0.30932,-0.00452,0.00198
0.04348,0.04713,0.20071,9.78500,-0.27672,0.02342,0.02106
0.04621,0.04874,0.21136,9.82239,-0.30106,-0.03367,-0.01377
0.03802,0.03810,0.20156,9.77390,-0.30175,0.01670,0.00898
0.03564,0.05744,0.18975,9.82579,-0.27334,0.00564,-0.03853
0.05479,0.04362,0.20266,9.79959,-0.29485,-0.00088,-0.01187
0.01213,0.06309,0.19424,9.81997,-0.29505,0.01963,-0.00252
0.03250,0.05754,0.18549,9.78591,-0.29301,-0.00407,0.01826
0.01015,0.05143,0.19643,9.80466,-0.30080,-0.00051,-0.00666
0.03968,0.06605,0.20412,9.83492,-0.31449,0.00718,0.02005
0.04702,0.05260,0.20153,9.78838,-0.29464,-0.00234,0.01167
0.02601,0.05421,0.18336,9.83278,-0.30814,-0.02372,-0.01426
0.03887,0.06320,0.18819,9.83081,-0.33566,0.05019,-0.02634
0.03874,0.05003,0.20011,9.80578,-0.26791,-0.01163,-0.00426
0.07382,0.04695,0.20097,9.84112,-0.26134,-0.02897,0.03599
0.03857,0.04552,0.17734,9.81937,-0.30890,0.00302,0.04364
0.03427,0.05542,0.20258,9.79976,-0.28614,-0.03294,0.01760
0.03511,0.05993,0.17352,9.79436,-0.30510,0.00913,-0.03987
0.04501,0.04453,0.21230,9.80817,-0.30795,-0.00551,-0.00297
0.03930,0.05162,0.20413,9.79064,-0.29743,0.00644,-0.02890
0.04900,0.03838,0.20713,9.84900,-0.31513,-0.00134,-0.02350
0.03721,0.04583,0.20696,9.78533,-0.26559,-0.02937,-0.03178
-0.00181,0.05159,0.21112,9.82211,-0.29825,-0.03122,-0.00931
0.02652,0.03335,0.20085,9.83097,-0.27750,-0.03617,-0.03967
0.03043,0.05313,0.21336,9.80797,-0.29196,0.00440,0.03302
0.07853,0.04850,0.18626,9.79316,-0.32369,0.01309,0.02198
0.03524,0.02620,0.21334,9.81180,-0.27622,0.00210,-0.01106
0.03788,0.04556,0.19573,9.80788,-0.28979,-0.01062,-0.01227
0.00684,0.05964,0.19906,9.80814,-0.29958,-0.03055,0.05163
0.03522,0.03473,0.20208,9.81630,-0.32407,-0.03828,0.02334
0.03630,0.03480,0.20642,9.80529,-0.29997,-0.02899,-0.01856
-0.00174,0.04903,0.19678,9.83442,-0.28519,0.00119,0.00433
0.02145,0.05605,0.20270,9.80624,-0.32617,-0.05242,-0.01426
0.02438,0.03116,0.19845,9.82019,-0.28358,-0.01222,-0.00219
0.01002,0.03688,0.19330,9.78602,-0.28959,-0.03520,0.00954
0.03511,0.03116,0.19592,9.81983,-0.28111,-0.01240,-0.01020
0.04646,0.03958,0.19791,9.79801,-0.30785,0.00972,-0.05054
-0.02050,0.02102,0.18752,9.81079,-0.30579,0.00757,-0.03169
-0.00098,0.03879,0.19417,9.81886,-0.31250,-0.02068,-0.01083
0.04370,0.02753,0.19969,9.80934,-0.31617,-0.02376,0.00505
0.01736,0.04994,0.18995,9.83264,-0.32224,-0.02488,0.02054
0.01957,0.03928,0.19703,9.79926,-0.28746,-0.00733,-0.00087
-0.01607,0.04307,0.21096,9.79059,-0.29268,0.02380,0.02889
0.03926,0.04451,0.21433,9.80092,-0.30022,-0.03865,0.00926
-0.01485,0.04883,0.19528,9.83124,-0.31282,0.01625,0.01230
0.00501,0.01626,0.20643,9.84121,-0.30575,-0.04570,0.02109
0.06999,0.04221,0.19867,9.82335,-0.30252,-0.00626,-0.01724
0.02963,0.03144,0.21503,9.77358,-0.27313,0.01949,-0.00311
0.03771,0.01041,0.19691,9.83431,-0.30589,0.01750,0.00172
0.01376,0.01789,0.20094,9.82297,-0.30498,-0.00729,-0.01082
0.01092,0.03870,0.19769,9.78714,-0.29532,0.02324,0.00705
0.02236,0.02995,0.21845,9.81896,-0.29384,0.01661,-0.01001
0.04438,0.03115,0.20409,9.80748,-0.31707,0.02784,-0.02421
0.04309,0.02287,0.20068,9.83102,-0.29454,-0.00492,0.01522
0.03647,0.02776,0.18632,9.84794,-0.26721,0.00141,-0.00516
-0.00102,0.03570,0.20473,9.80672,-0.31727,-0.01234,0.03019
0.03093,0.02362,0.20100,9.83646,-0.27024,-0.03885,-0.00660
0.03110,0.03567,0.19105,9.84180,-0.29068,-0.01969,0.01654
0.04454,0.01286,0.19919,9.78946,-0.29173,-0.00365,0.01155
0.02026,0.03783,0.19905,9.78030,-0.31609,-0.00468,-0.04393
0.01167,0.02315,0.21431,9.80054,-0.30673,0.03473,0.03647
0.07815,0.02547,0.19183,9.81785,-0.27298,0.02946,0.00438
0.03506,0.02367,0.20510,9.80126,-0.31024,0.01025,-0.00274
0.06913,0.01567,0.20606,9.77163,-0.29675,0.00089,-0.00281
0.02555,0.01922,0.19048,9.81380,-0.29034,-0.01282,0.03687
0.01102,0.03620,0.21154,9.80928,-0.33774,0.00010,0.01415
0.02762,0.01981,0.19173,9.83728,-0.30776,0.00133,0.00183
-0.00663,0.02478,0.20467,9.82668,-0.28602,0.04884,-0.03571
0.01434,0.00815,0.19498,9.80894,-0.31184,0.01234,0.00515
0.02059,0.02441,0.19845,9.81830,-0.30075,0.00178,0.01266
0.03089,0.03345,0.21337,9.80569,-0.29795,0.01149,0.01945
0.04941,0.03022,0.20487,9.76824,-0.31646,0.00220,-0.00038
0.01484,0.01430,0.20093,9.84106,-0.33530,-0.01267,0.02471
0.03508,0.00884,0.17941,9.82233,-0.32959,-0.01073,-0.01971
0.03624,0.01835,0.20183,9.80290,-0.29770,-0.00509,-0.01229
0.03242,0.00000,0.18535,9.76679,-0.25518,-0.01227,-0.00564
0.04324,0.00951,0.19432,9.80766,-0.34043,0.03122,-0.00900
0.02438,0.01058,0.19529,9.79866,-0.31317,-0.00460,0.01457
0.06128,0.02164,0.21308,9.82063,-0.30754,-0.01611,-0.00591
-0.00116,0.02170,0.19828,9.76875,-0.29222,0.03566,-0.01182
0.07836,0.01972,0.20759,9.82287,-0.33137,-0.02461,-0.02067
-0.01486,0.02590,0.20684,9.79349,-0.29456,0.01142,0.00611
0.02527,0.02845,0.19342,9.78687,-0.30334,0.01766,0.01508
0.02963,0.03049,0.17924,9.79409,-0.29891,0.01136,0.01276
-0.01295,0.02107,0.19027,9.82006,-0.33802,-0.01178,-0.00366
0.03906,0.03055,0.18139,9.78058,-0.28134,-0.01601,-0.02593
0.02452,0.02145,0.21588,9.80461,-0.31802,-0.01273,-0.00115
0.02854,0.01914,0.20871,9.78162,-0.26531,-0.00053,0.00480
0.03948,0.02921,0.19324,9.82554,-0.33566,-0.00861,-0.00431
0.02308,0.01088,0.20398,9.84126,-0.26725,-0.02394,0.01125
0.03394,0.01850,0.18407,9.79418,-0.30920,0.01679,0.00255
0.01081,0.00167,0.20481,9.83577,-0.29896,0.00187,-0.01944
0.03271,0.01093,0.19753,9.82097,-0.30192,0.01092,0.00343
0.02221,0.01896,0.19397,9.78136,-0.32140,0.00553,-0.00355
0.02757,0.01355,0.19566,9.82542,-0.28648,0.00867,0.00918
0.01478,0.00249,0.19750,9.78098,-0.26955,-0.01524,0.01210
0.02822,0.01237,0.19726,9.79088,-0.30901,-0.01293,0.02115
-0.00452,0.01792,0.20649,9.77790,-0.27270,0.02061,-0.00184
0.03255,0.01553,0.18530,9.80223,-0.30757,-0.00138,0.00226
0.04628,0.01066,0.19879,9.82022,-0.28545,-0.02259,-0.00584
0.02583,0.00744,0.18116,9.84013,-0.28653,-0.02031,-0.02995
0.00801,-0.00131,0.21066,9.83221,-0.30353,0.00008,0.04317
0.04877,0.00822,0.21036,9.79875,-0.28606,-0.01146,0.01273
0.04383,0.01170,0.21952,9.79496,-0.29904,-0.00449,0.04606
0.02481,0.00511,0.20453,9.81281,-0.27666,0.02512,0.01000
0.00681,-0.01681,0.18192,9.82667,-0.28563,0.00202,0.01139
0.04611,0.01545,0.19466,9.80723,-0.26003,0.01426,-0.02682
0.03980,0.02303,0.19832,9.82479,-0.28030,0.01953,0.01708
0.01874,0.01933,0.19266,9.78133,-0.26883,-0.00262,0.00684
-0.00296,-0.02507,0.19270,9.82516,-0.29289,0.01328,-0.00941
0.04132,0.00605,0.21067,9.82955,-0.28365,0.00429,-0.03547
0.03494,0.00621,0.21506,9.79127,-0.30862,-0.00305,-0.02730
0.03789,0.01152,0.21025,9.78681,-0.30659,0.01137,-0.02753
0.03140,0.00671,0.19490,9.75688,-0.30628,-0.02140,0.00198
0.03414,0.00449,0.21113,9.81106,-0.29189,0.03861,0.01196
0.01007,0.00223,0.19442,9.84416,-0.28580,0.02781,0.02550
0.02446,-0.00872,0.19757,9.79705,-0.28336,-0.01382,0.00656
0.01741,0.00355,0.20470,9.83830,-0.29070,-0.00962,-0.03044
0.06396,-0.00476,0.20284,9.79152,-0.29233,0.00360,-0.00727
-0.00469,-0.00102,0.19646,9.78843,-0.24525,0.01119,-0.01727
0.03637,-0.00504,0.21168,9.81114,-0.33559,0.02532,0.00833
0.04583,0.00631,0.21448,9.81359,-0.32152,-0.01283,0.00700
0.03375,0.00138,0.18027,9.79923,-0.31163,0.01514,0.00029
