emg0,imu1_ax,imu1_ay,imu1_az,imu1_gx,imu1_gy,imu1_gz,imu2_ax,imu2_ay,imu2_az,imu2_gx,imu2_gy,imu2_gz
0.07701,1.47302,0.01325,9.70706,-0.03632,-0.00042,-0.01110,-4.24902,0.01002,8.79195,-0.02157,0.01673,0.02849
0.03259,1.47022,0.01450,9.68532,0.15483,-0.01883,0.01720,-4.26973,0.01159,8.82663,0.19468,0.00346,0.01607
0.00086,1.46698,0.00430,9.71215,0.18291,0.01143,-0.00427,-4.29305,-0.00317,8.80984,0.15025,-0.02193,0.02173
0.01485,1.46072,-0.01587,9.71063,0.20678,0.02931,-0.00221,-4.25594,0.00684,8.79653,0.18488,-0.01187,-0.00309
0.02872,1.46797,0.00612,9.69578,0.19773,-0.02656,0.03823,-4.25401,0.02877,8.81475,0.19295,-0.01395,-0.01337
0.00160,1.44882,-0.00260,9.70393,0.16706,0.00590,0.00776,-4.24167,0.00448,8.83042,0.16384,-0.03633,-0.03677
0.00612,1.46504,0.02676,9.65716,0.22663,-0.01851,-0.00364,-4.26187,0.01053,8.81149,0.20219,-0.01283,-0.04561
0.02836,1.45492,0.01715,9.69702,0.18966,0.01709,0.03232,-4.26720,0.01475,8.81103,0.19213,0.03199,0.02136
0.03410,1.46887,0.01101,9.69488,0.18348,-0.00672,0.02304,-4.24939,0.00721,8.80962,0.19547,-0.02616,-0.03837
0.03953,1.46450,0.00659,9.72775,0.17810,0.01706,-0.02414,-4.26419,0.01590,8.81405,0.21352,-0.00192,0.03531
0.02211,1.47031,0.03891,9.71154,0.18068,-0.00973,-0.00901,-4.24632,0.01201,8.80955,0.17876,0.01686,0.03618
0.06124,1.47526,0.00876,9.69182,0.17867,-0.02650,-0.03204,-4.25309,0.01136,8.82771,0.21534,-0.01126,0.01009
0.01947,1.46452,0.01366,9.70485,0.19130,0.00121,-0.00862,-4.26874,0.03763,8.87734,0.16768,0.02663,0.00934
0.01310,1.47434,0.03213,9.66825,0.17269,0.00433,0.02436,-4.27857,0.01924,8.80229,0.16141,0.01005,0.01176
0.06277,1.46500,0.01327,9.70866,0.16360,0.01270,0.01557,-4.26374,0.02748,8.87005,0.15971,-0.01739,-0.00297
0.01908,1.45111,0.01666,9.74044,0.18812,-0.00210,-0.00933,-4.26337,0.04050,8.84776,0.17723,0.00594,-0.00071
0.01428,1.46445,0.01993,9.73251,0.20041,0.00165,0.01344,-4.27149,0.02484,8.84393,0.19490,0.00638,-0.00210
0.02541,1.46541,0.03340,9.68129,0.18017,0.03096,0.01298,-4.28893,0.03048,8.83280,0.15408,0.01082,0.01106
0.03168,1.45188,0.00895,9.68531,0.18333,-0.03979,-0.02459,-4.26400,0.03331,8.83799,0.18533,0.02392,0.03517
0.03915,1.44989,0.01913,9.66583,0.15384,-0.02654,-0.00788,-4.28456,0.02732,8.83368,0.24288,-0.02203,0.01690
0.04596,1.46183,0.02850,9.73882,0.20387,0.00980,-0.00122,-4.25836,0.03070,8.82515,0.16429,-0.02098,-0.00298
0.02934,1.45661,0.03971,9.69336,0.16995,-0.00633,-0.01750,-4.26335,0.03670,8.83039,0.18196,0.01231,-0.02158
0.04296,1.45961,0.03617,9.71867,0.18586,-0.01003,-0.01545,-4.26773,0.03427,8.83818,0.18215,0.00058,-0.02410
0.00785,1.47407,0.05132,9.68876,0.18240,-0.00522,0.01872,-4.28117,0.05245,8.84057,0.15644,-0.02002,-0.00746
0.06349,1.47144,0.04375,9.70314,0.19282,-0.01670,-0.01688,-4.26262,0.04032,8.81508,0.20878,-0.01628,0.00349
0.00775,1.46918,0.06285,9.70138,0.18392,0.02685,0.02890,-4.27923,0.05472,8.85816,0.16388,0.00778,-0.01012
0.02552,1.46281,0.04036,9.71065,0.17726,-0.00907,0.02908,-4.26191,0.04061,8.82274,0.19327,0.01144,-0.01407
0.08840,1.44741,0.05837,9.69190,0.16719,-0.02764,0.01976,-4.27454,0.03846,8.84320,0.19603,-0.00233,-0.00888
0.04948,1.46395,0.06308,9.69305,0.16875,-0.00212,0.03144,-4.26079,0.04834,8.83281,0.16467,0.00383,-0.02503
0.06389,1.48014,0.06769,9.71223,0.21228,0.02024,-0.00775,-4.26664,0.04667,8.84022,0.16787,0.02048,-0.00074
0.04168,1.48167,0.06922,9.71460,0.19426,-0.00321,-0.01418,-4.26831,0.05065,8.81046,0.19100,0.01825,-0.01676
0.02713,1.47812,0.06046,9.72771,0.18379,-0.01063,0.01153,-4.27559,0.05085,8.85147,0.20634,0.00018,-0.02367
0.01973,1.47873,0.06146,9.69775,0.17894,-0.01892,-0.00654,-4.25802,0.04804,8.81837,0.19653,0.01050,0.00709
0.03668,1.47494,0.07335,9.66723,0.19957,-0.02453,-0.02157,-4.25203,0.05278,8.80653,0.16315,0.01850,0.01092
0.03953,1.45856,0.05830,9.72723,0.18733,-0.02316,0.03947,-4.26316,0.04742,8.82658,0.19221,0.00681,-0.03126
0.03966,1.48396,0.07121,9.68413,0.17615,0.00011,0.00584,-4.27377,0.07076,8.86000,0.19413,0.00384,-0.01392
0.02539,1.46588,0.06068,9.68947,0.21224,-0.03373,0.03940,-4.26555,0.07143,8.80651,0.18698,-0.02401,-0.00436
0.00961,1.46104,0.08877,9.70972,0.17306,0.00719,0.01352,-4.24539,0.04914,8.83163,0.20951,0.00630,-0.01221
0.02628,1.46881,0.06388,9.69117,0.18130,-0.02434,0.03031,-4.26552,0.06390,8.79727,0.18125,-0.01299,-0.00930
0.02231,1.45128,0.07108,9.72252,0.16526,0.00861,-0.02444,-4.27887,0.07092,8.82159,0.18738,0.02320,-0.02001
0.03419,1.46562,0.06843,9.69450,0.17256,0.00207,-0.01033,-4.26531,0.06465,8.83694,0.21577,0.01724,-0.02707
0.00723,1.46586,0.08285,9.73072,0.16713,-0.01593,-0.02155,-4.26319,0.07451,8.82463,0.18457,0.05745,-0.00881
0.01484,1.46599,0.08657,9.65574,0.13611,-0.02326,-0.02391,-4.26830,0.08243,8.84113,0.19920,-0.00556,0.02666
0.04084,1.46861,0.09941,9.73005,0.19156,-0.01609,0.01402,-4.25051,0.08606,8.80488,0.18702,-0.01211,-0.02251
0.01944,1.46717,0.08461,9.70010,0.18298,0.01853,0.00479,-4.27491,0.07961,8.82581,0.14501,-0.01503,-0.01685
-0.00560,1.46288,0.08206,9.67871,0.19071,0.00027,-0.03939,-4.27116,0.06980,8.81845,0.22579,-0.03206,-0.01998
0.05169,1.46743,0.08436,9.69583,0.19881,-0.01750,0.00793,-4.25825,0.08618,8.78913,0.21389,-0.00784,-0.00727
0.01860,1.46199,0.07599,9.72874,0.18330,-0.00776,0.00413,-4.25262,0.07943,8.84761,0.17994,0.00745,0.00450
0.05448,1.46568,0.08410,9.73503,0.17952,-0.00238,-0.03409,-4.28187,0.06547,8.81432,0.16453,0.00464,0.03429
0.04106,1.45459,0.09495,9.69641,0.19901,-0.02529,-0.00554,-4.27126,0.07749,8.80557,0.16658,-0.02454,-0.00435
0.00356,1.46420,0.10044,9.71603,0.17657,-0.02606,0.00153,-4.27082,0.10093,8.83989,0.17128,0.00822,0.01444
0.02033,1.47928,0.09520,9.73295,0.22260,0.02774,0.03057,-4.26618,0.07552,8.84947,0.16548,-0.03335,-0.01761
0.07555,1.46853,0.09403,9.69867,0.22842,-0.01481,-0.00742,-4.26299,0.09654,8.84279,0.17949,0.01492,0.02143
0.02282,1.46192,0.08254,9.71022,0.20119,-0.02805,-0.02096,-4.25473,0.09676,8.84581,0.16658,-0.00519,0.02690
0.05266,1.46205,0.10115,9.70923,0.20529,-0.00632,-0.01862,-4.27273,0.09764,8.79462,0.20180,-0.00811,-0.00183
0.00332,1.47009,0.09227,9.69307,0.21060,0.00892,-0.01509,-4.26605,0.08645,8.83912,0.17924,0.01071,-0.01585
0.03897,1.46414,0.10201,9.69210,0.15164,0.02694,0.01651,-4.27313,0.10378,8.82612,0.19099,0.01050,0.01297
0.00190,1.47265,0.11514,9.68422,0.21657,0.00047,-0.00196,-4.25674,0.10131,8.86757,0.17596,0.01253,0.02787
0.03717,1.47139,0.09732,9.70887,0.22995,-0.01831,0.00537,-4.27630,0.09309,8.83367,0.17307,0.02067,-0.01564
-0.02844,1.44177,0.09563,9.66961,0.16372,0.00725,-0.00632,-4.26529,0.09433,8.83606,0.19593,0.02408,-0.02258
0.03634,1.44976,0.12194,9.70775,0.18997,0.00491,0.01914,-4.26244,0.09920,8.83599,0.20320,-0.00411,-0.01814
-0.03904,1.44846,0.11104,9.68272,0.18162,-0.00975,0.03517,-4.25881,0.11156,8.80651,0.19366,-0.03589,-0.01775
0.03781,1.47166,0.12974,9.68999,0.16056,0.01681,0.03435,-4.27150,0.09771,8.83177,0.15268,0.00585,0.00310
0.03435,1.46540,0.11137,9.69886,0.19444,-0.01533,0.02060,-4.27245,0.10033,8.84193,0.20888,-0.01540,0.05089
0.03560,1.45535,0.09657,9.69293,0.19039,0.04045,0.01427,-4.25701,0.09991,8.84167,0.18294,-0.00159,-0.01185
0.03708,1.49951,0.11664,9.73493,0.15909,-0.02517,-0.00053,-4.25844,0.10643,8.83898,0.23298,0.00835,-0.02696
0.03145,1.46902,0.12925,9.70439,0.16791,0.00728,-0.00107,-4.26385,0.10099,8.85412,0.17691,0.01523,-0.01084
0.02867,1.47206,0.11048,9.68165,0.18376,0.00094,-0.00948,-4.28251,0.11217,8.82908,0.15893,-0.03395,-0.02469
0.02595,1.46828,0.12859,9.65219,0.23682,0.03285,0.01772,-4.26594,0.10653,8.87856,0.18556,-0.00606,-0.00355
0.00411,1.46401,0.11669,9.70277,0.22502,0.02821,-0.01281,-4.26160,0.11797,8.84095,0.18835,0.01417,0.01612
0.03145,1.45356,0.13037,9.69395,0.19969,0.01741,0.01715,-4.28773,0.12078,8.83723,0.19535,0.03110,0.01676
0.08149,1.45740,0.11719,9.69726,0.21660,-0.00377,-0.00344,-4.27208,0.14264,8.79860,0.18995,-0.01096,-0.03700
-0.01498,1.45874,0.12814,9.67316,0.18512,0.00356,0.00406,-4.25046,0.12112,8.83370,0.14906,0.03137,-0.03811
0.00147,1.48125,0.13459,9.69756,0.18756,-0.02727,0.03843,-4.25938,0.11418,8.80160,0.18704,0.00047,-0.00728
0.00062,1.45030,0.16457,9.68203,0.17395,0.02364,0.03946,-4.28294,0.11246,8.85867,0.18907,0.01934,-0.01027
0.02123,1.46915,0.13858,9.72417,0.18243,-0.02540,-0.01347,-4.27548,0.13116,8.86449,0.16910,0.02346,0.00908
0.03057,1.46641,0.13640,9.68484,0.17266,0.00208,-0.01348,-4.28139,0.14068,8.82451,0.17335,-0.00706,-0.04487
0.00119,1.46610,0.14146,9.67940,0.18940,0.00676,-0.00955,-4.27032,0.13434,8.80725,0.16044,0.01240,0.00611
0.02501,1.48738,0.14447,9.70744,0.17587,-0.00296,0.01192,-4.26460,0.14453,8.82226,0.20912,0.02848,-0.01397
0.05391,1.46578,0.14184,9.73991,0.19878,-0.02650,0.01419,-4.26767,0.13231,8.83465,0.16341,0.02046,-0.01236
0.04735,1.48357,0.15469,9.70927,0.19029,0.01063,0.01461,-4.27059,0.12220,8.78710,0.20785,-0.01021,0.00177
-0.03478,1.47687,0.14679,9.72349,0.15722,0.02286,0.01405,-4.27574,0.12898,8.83541,0.19361,0.01419,-0.00429
0.06153,1.45395,0.15399,9.69137,0.17164,0.01768,0.01966,-4.26179,0.13429,8.83335,0.18748,-0.00053,-0.00821
0.02829,1.47429,0.16514,9.68666,0.18428,-0.04566,0.02098,-4.25254,0.14851,8.83043,0.17614,-0.02639,0.03512
-0.00488,1.46293,0.15091,9.66862,0.16869,-0.00854,0.00338,-4.27872,0.14211,8.85099,0.18039,-0.00256,-0.01472
0.02834,1.46185,0.14484,9.69606,0.17970,-0.00566,-0.00208,-4.23732,0.15118,8.82441,0.20065,-0.03548,-0.00792
0.03846,1.47829,0.14021,9.73229,0.16185,-0.00141,0.02909,-4.27769,0.13895,8.88258,0.18575,0.00615,0.01979
0.03367,1.46614,0.15303,9.72242,0.19664,-0.01860,-0.01641,-4.28050,0.13125,8.83614,0.21743,0.00853,0.01263
0.00721,1.46663,0.16208,9.70883,0.18810,-0.02440,0.01615,-4.26036,0.15549,8.82673,0.17763,-0.00793,0.01038
0.03449,1.46869,0.16286,9.70017,0.19443,0.02848,-0.01188,-4.26599,0.15331,8.82730,0.16523,0.00616,-0.00842
0.04253,1.48188,0.18119,9.70737,0.19424,0.00649,-0.00318,-4.26434,0.14962,8.84536,0.17277,-0.03400,-0.01985
0.05136,1.47120,0.15654,9.67175,0.22219,0.02045,0.01408,-4.26442,0.15426,8.84385,0.18990,-0.01691,-0.01200
0.02857,1.45084,0.15854,9.70208,0.15730,-0.02494,0.01798,-4.25302,0.14815,8.83011,0.19161,-0.01527,0.01801
0.01208,1.47502,0.17397,9.71193,0.21023,0.00428,-0.01278,-4.25852,0.16258,8.81291,0.18805,-0.01795,-0.00674
0.06395,1.44767,0.15554,9.70654,0.20339,-0.01244,-0.01413,-4.28896,0.16676,8.84408,0.17329,0.01174,-0.00540
0.05343,1.46555,0.18819,9.67848,0.19587,0.03015,-0.00387,-4.27213,0.15413,8.83526,0.20867,0.02883,0.00155
0.01622,1.46750,0.17803,9.70765,0.19553,-0.00675,-0.00318,-4.26160,0.16189,8.85206,0.21257,0.02856,-0.01617
0.06013,1.46539,0.18293,9.68145,0.15298,-0.03264,-0.03761,-4.27841,0.15894,8.88075,0.18394,-0.02425,-0.02212
0.05181,1.47191,0.17211,9.73257,0.21150,0.01374,-0.00642,-4.27415,0.16582,8.84922,0.18885,0.01070,0.05887
0.03053,1.47233,0.17984,9.69358,0.19328,-0.01400,-0.00282,-4.26747,0.17143,8.84635,0.15476,0.00046,0.00808
0.05425,1.45599,0.17468,9.70893,0.18438,-0.01885,-0.03157,-4.26368,0.17752,8.81886,0.18604,0.01780,-0.02547
0.04950,1.46831,0.17698,9.70405,0.14548,-0.03189,-0.03651,-4.27175,0.17374,8.81624,0.20453,0.01247,-0.01562
0.02335,1.45937,0.18988,9.69635,0.19228,0.01568,0.01612,-4.26264,0.16124,8.84982,0.20998,-0.01421,0.04192
0.02125,1.46450,0.19219,9.67960,0.21646,-0.01455,-0.01002,-4.25484,0.16655,8.80094,0.21134,0.01630,0.03564
-0.03165,1.47414,0.19626,9.71249,0.17608,-0.05787,-0.00194,-4.25720,0.18052,8.82500,0.23766,-0.00072,-0.01547
0.00095,1.48499,0.17752,9.70482,0.17262,-0.00700,0.01570,-4.26768,0.17137,8.81878,0.18236,0.00182,-0.01420
0.04222,1.46426,0.17878,9.69143,0.22227,0.03292,0.01962,-4.28722,0.17953,8.83951,0.17099,0.01858,0.03884
0.04889,1.47125,0.20337,9.71377,0.18499,0.01694,-0.01292,-4.25218,0.16805,8.82923,0.22656,-0.01764,-0.02444
-0.01224,1.46624,0.20477,9.72259,0.18989,-0.00415,-0.03510,-4.27025,0.19280,8.80540,0.19179,0.02137,-0.02511
0.03465,1.46309,0.20490,9.68827,0.19000,0.02443,-0.01528,-4.25076,0.18624,8.82022,0.15308,0.01808,-0.04276
0.03408,1.46178,0.19226,9.67415,0.19239,0.00128,0.02276,-4.25093,0.18528,8.84091,0.18167,0.01636,-0.02518
-0.02253,1.47434,0.20417,9.72780,0.18184,0.03198,0.03135,-4.26601,0.17243,8.82552,0.18192,0.04370,-0.00180
0.02989,1.47921,0.20116,9.70700,0.19002,-0.01228,-0.00494,-4.28034,0.19257,8.86109,0.20966,-0.02754,-0.01774
0.07047,1.45331,0.22335,9.69017,0.17636,0.00117,0.01211,-4.27796,0.17476,8.80237,0.19895,0.00893,0.02261
0.05225,1.46607,0.19307,9.70267,0.21776,-0.02325,0.00284,-4.27402,0.19118,8.85222,0.13459,-0.00244,-0.00861
0.01814,1.46901,0.20961,9.70804,0.21326,0.00239,-0.00986,-4.27288,0.19109,8.84318,0.17242,0.01893,0.01351
0.04298,1.47443,0.23869,9.68091,0.19690,0.05053,-0.01240,-4.27972,0.19473,8.83919,0.20675,-0.02294,0.01165
0.01832,1.46448,0.23347,9.70167,0.16556,-0.01507,0.02990,-4.26235,0.19965,8.84497,0.18536,-0.00418,-0.01073
0.06443,1.46022,0.20443,9.67235,0.17011,0.06607,-0.03461,-4.24192,0.20440,8.81109,0.18196,-0.02896,-0.01568
-0.01609,1.47583,0.21472,9.67084,0.21387,-0.04652,-0.04256,-4.26347,0.21212,8.84323,0.17923,0.02822,-0.02130
0.03160,1.46245,0.21180,9.67765,0.18387,0.03007,-0.00939,-4.26677,0.20059,8.85411,0.17225,0.03616,0.03270
0.02392,1.46525,0.22248,9.68978,0.17606,-0.01523,0.01336,-4.25062,0.20744,8.82367,0.17558,0.01069,-0.01998
0.05582,1.47226,0.22359,9.69141,0.17714,0.02358,0.01432,-4.28939,0.19777,8.81489,0.15922,0.01394,0.02325
0.05385,1.46020,0.23349,9.74353,0.19287,0.02683,0.01734,-4.27278,0.20080,8.82015,0.21064,-0.00801,0.00997
0.04018,1.46601,0.22623,9.71855,0.18982,0.00291,-0.02084,-4.27714,0.21954,8.84933,0.20242,0.00917,0.02426
0.02809,1.44408,0.23860,9.67690,0.20196,-0.01228,-0.01631,-4.27814,0.20297,8.83351,0.19965,-0.02296,0.00137
-0.01012,1.45573,0.23994,9.71853,0.18573,-0.00427,0.02983,-4.27093,0.22161,8.82533,0.16313,0.00390,-0.02300
0.07374,1.48014,0.22640,9.72213,0.16972,-0.00357,0.00923,-4.25264,0.22056,8.82472,0.19927,0.02862,-0.00855
0.03031,1.46119,0.23592,9.70134,0.19338,0.00522,0.01889,-4.28146,0.20317,8.83250,0.21360,-0.00110,-0.04343
0.04169,1.46587,0.23511,9.67442,0.20013,-0.01363,0.01049,-4.27243,0.20532,8.80960,0.20308,-0.03780,-0.02503
0.07275,1.47576,0.23044,9.70910,0.18596,-0.00488,0.00325,-4.26903,0.20842,8.84106,0.18077,-0.02140,0.03187
0.05193,1.45328,0.23372,9.71789,0.18287,0.02189,0.01809,-4.27021,0.21345,8.82597,0.17448,0.00843,0.02963
0.03038,1.45982,0.23756,9.70646,0.19880,0.01752,0.00457,-4.25889,0.23905,8.82757,0.15428,-0.02926,-0.01859
0.01447,1.46088,0.25146,9.71508,0.17818,-0.01544,0.00673,-4.27078,0.22799,8.86748,0.16146,-0.00050,-0.01713
0.06093,1.47542,0.23704,9.68377,0.21182,-0.01166,0.00028,-4.27446,0.21740,8.79260,0.18430,0.02161,0.00609
0.08212,1.46493,0.25868,9.68359,0.16166,-0.01042,-0.00423,-4.25849,0.22712,8.80662,0.20094,-0.04630,0.00673
0.03262,1.45521,0.24989,9.67255,0.19777,-0.01233,0.00005,-4.26233,0.24732,8.83261,0.17833,-0.00454,-0.00357
0.02014,1.47456,0.25254,9.71611,0.17350,0.00994,0.02641,-4.26495,0.21841,8.80429,0.19235,0.00656,-0.00802
0.03790,1.46814,0.24420,9.70355,0.19802,-0.00490,-0.01983,-4.27531,0.23191,8.82050,0.18630,-0.01870,0.00647
0.04448,1.44679,0.25853,9.71267,0.16931,-0.01075,-0.00730,-4.27923,0.22417,8.85786,0.14420,-0.01994,-0.00723
0.06344,1.45959,0.26292,9.69115,0.17700,0.01294,-0.00105,-4.25812,0.22958,8.83577,0.19202,0.02463,-0.02866
0.05405,1.47360,0.27461,9.71278,0.21269,0.02599,0.02976,-4.26326,0.24484,8.83861,0.20642,-0.00216,-0.00323
-0.00311,1.47000,0.24389,9.69552,0.19408,-0.01907,0.01640,-4.28400,0.25343,8.83745,0.21670,-0.00208,-0.01041
-0.00930,1.46279,0.27750,9.70748,0.18482,0.00292,-0.00816,-4.27304,0.22789,8.83579,0.18306,-0.00538,0.06329
0.02784,1.46308,0.26530,9.73150,0.21235,-0.04180,0.01903,-4.25129,0.23315,8.81984,0.17794,0.00801,0.00033
0.00526,1.46636,0.25806,9.73901,0.23531,-0.01041,-0.01023,-4.26349,0.24513,8.77984,0.22362,0.00881,0.04005
0.02481,1.47350,0.26286,9.69766,0.17713,-0.02786,-0.01984,-4.26217,0.24406,8.82885,0.19454,-0.00871,-0.02719
0.04124,1.45747,0.28798,9.71126,0.19332,-0.00466,0.00495,-4.26126,0.24217,8.83318,0.21391,0.00452,-0.03653
0.03575,1.46743,0.28560,9.67859,0.21155,0.00721,-0.04677,-4.26077,0.25162,8.79529,0.20073,-0.04271,0.02189
0.02215,1.47523,0.28728,9.68510,0.22747,0.03425,0.01319,-4.27088,0.22576,8.82759,0.22905,-0.03365,0.00806
0.04294,1.45887,0.27063,9.67957,0.18704,0.00944,0.00619,-4.28020,0.26414,8.79515,0.20563,0.00584,-0.02397
0.03620,1.47452,0.28803,9.68337,0.17446,0.00506,-0.00524,-4.25945,0.26222,8.83844,0.16257,-0.00748,-0.01826
0.03471,1.47350,0.26107,9.69441,0.20944,-0.00752,-0.01528,-4.27487,0.25315,8.82186,0.19175,0.00972,0.00533
0.03412,1.46885,0.27865,9.67719,0.13387,-0.03432,-0.01182,-4.26716,0.25113,8.87697,0.16022,0.03514,0.01761
0.01027,1.46746,0.28798,9.65142,0.17241,-0.01080,-0.02368,-4.27429,0.25588,8.84840,0.16102,-0.01886,0.00769
0.01228,1.47578,0.30229,9.72700,0.17642,0.00004,0.02554,-4.26615,0.25953,8.83673,0.17871,0.00944,0.00811
0.02921,1.45885,0.29185,9.68214,0.22986,-0.01139,-0.00007,-4.26756,0.25290,8.82633,0.20411,-0.00249,-0.04061
0.03081,1.45390,0.28638,9.66930,0.18617,-0.00771,0.01390,-4.26103,0.26174,8.84714,0.16635,-0.01710,0.01656
-0.00560,1.45279,0.29399,9.72366,0.15961,0.00056,0.01656,-4.27273,0.25807,8.81922,0.21312,-0.00872,-0.00592
0.03387,1.47597,0.28480,9.69878,0.17622,-0.00729,0.00896,-4.28516,0.27449,8.82455,0.19435,0.00392,-0.00998
-0.00649,1.45588,0.29679,9.70878,0.22848,0.01968,0.03286,-4.27178,0.26705,8.84063,0.17365,0.03066,-0.00613
0.00874,1.45045,0.29747,9.70700,0.20443,0.01484,-0.02839,-4.27977,0.24629,8.84809,0.19270,-0.00791,0.01332
0.01508,1.45592,0.30119,9.70309,0.21035,0.01816,0.00037,-4.26988,0.26748,8.85376,0.20604,-0.02515,0.02039
0.04835,1.46862,0.29386,9.71188,0.15680,-0.01163,0.01206,-4.27782,0.25319,8.82323,0.16338,0.01711,-0.01829
0.04787,1.46554,0.31624,9.69703,0.20123,0.01132,-0.00651,-4.26821,0.26943,8.84509,0.21294,0.02834,0.03558
0.02054,1.48599,0.29138,9.66665,0.18788,-0.03749,0.00463,-4.28416,0.27195,8.85673,0.18036,-0.00801,0.03961
0.03905,1.46102,0.29808,9.69927,0.18387,0.01208,-0.02435,-4.27715,0.27070,8.83345,0.19880,0.00578,-0.00249
0.03036,1.45658,0.29677,9.69784,0.17808,-0.00510,-0.04684,-4.25577,0.27105,8.85494,0.15688,0.03364,0.02137
0.03771,1.45690,0.28535,9.66019,0.18215,0.03017,0.00973,-4.26364,0.27762,8.81978,0.18093,-0.00210,0.01483
0.00083,1.46369,0.30275,9.69702,0.18747,0.03058,-0.01295,-4.27337,0.27922,8.79666,0.21213,0.02826,0.00068
0.03122,1.47275,0.30299,9.69219,0.17573,-0.04532,-0.01123,-4.26896,0.26661,8.84685,0.20398,0.03052,0.00078
0.02139,1.45559,0.30974,9.70964,0.15725,0.03611,-0.01601,-4.26139,0.29556,8.86060,0.16097,-0.04228,-0.00043
0.04520,1.46145,0.31785,9.67596,0.18695,-0.02374,-0.02741,-4.28256,0.30730,8.81871,0.18741,-0.03419,0.00975
0.04219,1.44146,0.30729,9.73644,0.22133,0.01089,0.02745,-4.26530,0.28096,8.83289,0.21447,0.02026,0.01455
0.04847,1.46430,0.32377,9.72480,0.18639,-0.00717,-0.03106,-4.26474,0.29122,8.78127,0.23640,0.00613,-0.01962
0.03671,1.45354,0.32586,9.67648,0.20659,0.04278,0.00169,-4.27148,0.28965,8.81968,0.17439,0.00355,-0.02764
0.00971,1.46949,0.30961,9.70032,0.22801,0.03392,-0.03421,-4.25747,0.28464,8.80899,0.17846,0.02803,0.01308
0.07173,1.46848,0.31775,9.67963,0.19949,0.01933,-0.00583,-4.27159,0.29812,8.84638,0.16826,0.01468,0.00987
0.00120,1.45701,0.32933,9.68688,0.17482,0.02411,-0.01337,-4.27939,0.30653,8.82966,0.18411,0.01035,0.00275
0.01979,1.44918,0.32917,9.67161,0.20134,0.00721,-0.00014,-4.27985,0.30264,8.80279,0.18982,-0.02541,-0.00883
0.01765,1.45905,0.32006,9.71653,0.16889,-0.00880,0.02124,-4.26158,0.30487,8.79429,0.19289,-0.00801,-0.01605
0.03265,1.47459,0.32698,9.67300,0.20298,0.00341,-0.00887,-4.27969,0.31245,8.81292,0.18398,-0.01429,0.03245
-0.00309,1.45203,0.33830,9.68165,0.20539,0.03341,0.01193,-4.26752,0.30941,8.84524,0.17409,0.01000,-0.00570
0.03595,1.47131,0.34495,9.69369,0.21149,0.00008,-0.00065,-4.25766,0.29488,8.83906,0.21478,0.02219,0.00587
0.02078,1.46412,0.32623,9.68130,0.20375,-0.02857,0.01454,-4.26130,0.31294,8.82665,0.21725,0.04096,0.01059
-0.02673,1.46948,0.35210,9.68769,0.15404,-0.02199,0.01529,-4.25782,0.29743,8.82575,0.18428,0.01844,-0.00373
-0.00813,1.45991,0.34309,9.71396,0.14992,-0.00992,0.02123,-4.26764,0.29822,8.81799,0.15552,0.00403,0.00996
0.03039,1.45366,0.34840,9.70341,0.18933,0.00002,-0.02113,-4.26310,0.30729,8.83328,0.23171,-0.01723,0.04980
0.01403,1.46431,0.32815,9.69676,0.21174,-0.00718,0.03335,-4.27497,0.30628,8.83989,0.19792,0.00266,0.00175
0.03249,1.45779,0.33779,9.67648,0.18961,-0.01118,0.00566,-4.26116,0.31153,8.81390,0.17582,0.00612,0.02774
0.03026,1.46689,0.33505,9.69381,0.16805,0.01606,-0.00708,-4.27515,0.30444,8.81219,0.18301,0.00799,0.00652
0.00878,1.48481,0.34903,9.70975,0.18401,-0.00188,-0.01391,-4.25757,0.33344,8.83319,0.18312,-0.00113,-0.02000
0.07836,1.45837,0.36459,9.70669,0.14251,0.00784,-0.01805,-4.27793,0.31316,8.83030,0.19061,-0.02454,-0.01443
0.02115,1.45952,0.36546,9.68191,0.18303,-0.01472,-0.00864,-4.27087,0.31212,8.82356,0.17027,-0.04578,0.03066
0.01916,1.46907,0.36202,9.70074,0.22409,0.01259,0.01643,-4.26450,0.33126,8.83951,0.17915,0.02114,0.00263
-0.00272,1.47278,0.36389,9.66088,0.18113,-0.00109,-0.00969,-4.26428,0.31302,8.81697,0.20035,0.00893,-0.02444
0.01044,1.48685,0.35999,9.71050,0.16242,0.00181,0.00179,-4.26193,0.32629,8.83555,0.19421,-0.02970,0.00187
0.07125,1.47646,0.35789,9.71525,0.19235,-0.01211,-0.00270,-4.26379,0.32516,8.83363,0.16508,-0.00275,0.00043
0.02383,1.46946,0.36685,9.69798,0.17096,0.00577,-0.01364,-4.25398,0.34322,8.81288,0.15105,0.00394,-0.00923
0.03125,1.47420,0.36939,9.67657,0.18929,0.01597,-0.01715,-4.26801,0.31964,8.81858,0.19525,0.00967,-0.02485
0.01187,1.47236,0.35406,9.70917,0.14975,-0.01916,-0.01460,-4.27470,0.34105,8.82391,0.16681,-0.01663,0.00766
-0.01125,1.45354,0.36388,9.66688,0.19034,-0.01432,-0.00285,-4.25275,0.32712,8.84319,0.21375,-0.01988,-0.00514
0.04075,1.46254,0.36602,9.70832,0.21900,-0.01317,-0.00982,-4.25107,0.34746,8.80966,0.18272,-0.02610,-0.02374
0.05105,1.47539,0.35128,9.67787,0.21468,-0.01406,0.01973,-4.25151,0.33148,8.83052,0.18155,0.01339,0.01692
0.02927,1.45238,0.38732,9.66944,0.20653,-0.03145,-0.00759,-4.25513,0.32468,8.79340,0.17906,0.00246,0.01777
0.03403,1.45809,0.39840,9.72521,0.17046,0.00883,-0.03448,-4.26382,0.35158,8.84391,0.16961,-0.01888,0.01538
0.01323,1.45189,0.37845,9.71547,0.18741,-0.03888,0.00623,-4.26430,0.34274,8.88522,0.16208,0.00130,-0.00700
0.07630,1.46762,0.37592,9.70065,0.15882,0.02575,-0.02867,-4.28436,0.33506,8.83756,0.16811,-0.01703,-0.00896
0.04874,1.44860,0.37305,9.68522,0.18901,-0.00839,0.00826,-4.27463,0.32859,8.82567,0.18753,-0.02235,-0.00021
0.00084,1.47104,0.39502,9.72514,0.19102,0.01071,0.01030,-4.26826,0.34617,8.85041,0.18052,0.03483,-0.04619
0.01367,1.45907,0.39435,9.71443,0.19360,0.00183,-0.03671,-4.27065,0.35435,8.78891,0.18565,-0.00578,-0.01930
0.06030,1.46449,0.37792,9.70883,0.19462,-0.01146,-0.03325,-4.27677,0.35044,8.79018,0.21249,0.02694,0.01456
0.00928,1.45840,0.38827,9.70654,0.16390,-0.02118,-0.01755,-4.27597,0.37893,8.81795,0.19837,-0.01780,-0.03342
0.06560,1.46632,0.40268,9.71584,0.15838,0.00154,0.02307,-4.26340,0.36199,8.83294,0.18037,-0.00499,0.01935
0.04571,1.46741,0.38259,9.69125,0.16479,0.00192,0.01541,-4.27691,0.34013,8.84231,0.18540,0.00134,0.01435
0.02204,1.46047,0.39713,9.72031,0.19985,-0.00454,0.00280,-4.23721,0.37987,8.77881,0.19837,-0.00898,-0.01013
0.04968,1.44559,0.38699,9.70031,0.23758,-0.00795,0.02893,-4.26354,0.35329,8.82298,0.18933,-0.00032,0.01302
0.04397,1.47689,0.39059,9.71446,0.20377,-0.00980,-0.01967,-4.27995,0.35773,8.79625,0.16733,0.02344,-0.01165
0.05472,1.46924,0.39616,9.72524,0.22120,-0.01967,-0.02147,-4.27798,0.36792,8.82625,0.15280,-0.00121,-0.00487
0.05578,1.46491,0.40775,9.70108,0.18435,-0.01009,-0.03635,-4.26569,0.35104,8.83435,0.17998,-0.02195,0.00125
0.09362,1.46948,0.40960,9.64395,0.22182,-0.00329,0.00182,-4.28611,0.37248,8.79462,0.18723,-0.00532,-0.00464
0.04297,1.46236,0.40214,9.66629,0.18773,-0.03109,0.01159,-4.26012,0.36500,8.82781,0.20696,0.00151,-0.02180
0.06626,1.47487,0.39344,9.67429,0.22405,0.03201,0.01311,-4.24950,0.38681,8.78799,0.19075,0.00963,0.01050
0.03165,1.47354,0.40819,9.68447,0.17654,0.02901,-0.03094,-4.27930,0.35966,8.81187,0.20415,0.03365,0.00155
0.04569,1.47132,0.40099,9.65577,0.18307,0.02556,0.01037,-4.25889,0.37531,8.78798,0.18229,-0.00549,-0.02751
0.02096,1.46228,0.40572,9.69128,0.16156,-0.02599,0.00570,-4.26805,0.36198,8.82349,0.12958,0.01735,-0.01955
0.02469,1.46961,0.40328,9.69153,0.19681,0.01301,-0.00396,-4.24609,0.37070,8.81442,0.17826,0.00465,0.00308
0.01504,1.45812,0.42066,9.68570,0.17373,-0.01123,0.00179,-4.27943,0.38567,8.84788,0.22746,0.00311,0.00436
0.03554,1.45877,0.42342,9.67810,0.20372,0.01958,0.01661,-4.24320,0.37699,8.82387,0.15998,0.00597,0.00882
0.02398,1.45703,0.43260,9.69536,0.18557,-0.02684,0.00664,-4.25287,0.38878,8.84662,0.19128,0.00514,0.00813
0.02697,1.46797,0.39819,9.68836,0.17340,-0.01936,0.00177,-4.26495,0.38540,8.80954,0.21695,-0.01621,-0.00145
0.00953,1.47063,0.42463,9.70905,0.13823,-0.00222,0.00037,-4.26733,0.39065,8.87732,0.20489,0.01534,-0.03008
0.03361,1.44498,0.42481,9.70084,0.18440,-0.00282,-0.00762,-4.26120,0.37051,8.80743,0.20691,0.02528,0.02984
0.01992,1.45967,0.44187,9.69727,0.16482,0.01175,0.02509,-4.26536,0.39258,8.81317,0.17199,0.03755,0.02531
0.04880,1.47131,0.43281,9.66146,0.23900,0.00802,0.03241,-4.24888,0.39249,8.80817,0.17703,-0.00243,0.00920
0.03443,1.48514,0.44390,9.64642,0.17603,0.03044,0.01957,-4.27687,0.38718,8.82555,0.17007,-0.01942,-0.01539
0.00645,1.46738,0.45011,9.65155,0.18167,-0.00927,-0.07311,-4.25850,0.40124,8.81182,0.18377,0.02191,0.03290
0.03307,1.45094,0.40872,9.69977,0.18501,0.01626,0.00337,-4.26400,0.38868,8.81912,0.18871,-0.02688,0.01860
0.06918,1.45903,0.43967,9.68540,0.16118,-0.02031,0.00921,-4.26224,0.39135,8.83742,0.16328,-0.00599,-0.00615
0.06388,1.46989,0.44115,9.71015,0.18196,-0.00196,0.01274,-4.26732,0.39496,8.83554,0.19124,-0.00095,-0.02325
0.04520,1.46736,0.43745,9.68937,0.19001,0.01354,0.00355,-4.26630,0.39046,8.82262,0.17817,0.03058,-0.01214
0.02678,1.47803,0.43917,9.65867,0.17123,0.01017,-0.00005,-4.25390,0.41179,8.87362,0.19356,0.01162,-0.01591
0.01184,1.45266,0.44812,9.70772,0.21645,-0.01330,-0.02145,-4.27308,0.40361,8.79240,0.18459,-0.02768,-0.01907
0.05313,1.45667,0.47097,9.73534,0.17180,0.01685,-0.01873,-4.27468,0.40387,8.82440,0.19276,0.03240,-0.01745
0.01394,1.46455,0.44425,9.69972,0.21746,0.02169,0.00794,-4.26822,0.42157,8.84762,0.17403,0.02679,-0.01806
0.01624,1.44911,0.44590,9.70631,0.18230,0.01276,-0.00220,-4.26820,0.42556,8.84298,0.18771,-0.00663,0.01322
0.04469,1.46764,0.46065,9.67999,0.18619,0.02642,-0.01136,-4.28613,0.40267,8.82867,0.19281,0.00230,0.02672
0.06810,1.47176,0.43509,9.68091,0.18411,-0.04498,-0.00198,-4.27391,0.39965,8.79583,0.16679,0.01115,-0.00226
0.05732,1.47550,0.44763,9.68930,0.18488,0.01767,0.00944,-4.26160,0.42327,8.80897,0.19231,0.01617,0.01352
0.04058,1.47429,0.45416,9.69405,0.19372,0.00663,-0.04857,-4.27553,0.40989,8.79470,0.17698,0.02605,-0.01064
0.05678,1.46452,0.46976,9.69249,0.19387,-0.00618,0.02192,-4.26480,0.41597,8.82963,0.18228,0.00195,0.02209
0.04378,1.46362,0.45749,9.68358,0.15353,0.02578,0.05122,-4.25564,0.42772,8.84241,0.17661,-0.00612,0.00833
0.03240,1.47827,0.45040,9.70567,0.15601,0.01433,0.00589,-4.24888,0.43484,8.79556,0.18657,-0.01729,-0.00818
-0.02833,1.46844,0.46548,9.63385,0.20801,0.01011,-0.01353,-4.26598,0.41732,8.81047,0.17364,0.02350,0.00101
0.02778,1.46117,0.46094,9.66570,0.19479,0.01178,-0.01955,-4.27076,0.41072,8.82449,0.20922,0.04147,0.00143
-0.01446,1.44210,0.47038,9.64239,0.22240,-0.03871,-0.00229,-4.26986,0.41313,8.80489,0.21103,-0.00932,0.00675
0.06869,1.46341,0.45806,9.67373,0.22518,-0.00054,-0.03681,-4.25999,0.42254,8.85094,0.14896,0.00628,-0.01375
0.01178,1.46423,0.46976,9.69805,0.18455,-0.02352,-0.00152,-4.27543,0.42678,8.83205,0.19766,0.02401,-0.02755
0.01689,1.47575,0.46880,9.66902,0.19161,0.00791,0.03023,-4.25783,0.42057,8.82929,0.18465,-0.01872,-0.01628
0.04064,1.48041,0.46852,9.68569,0.20211,0.01420,-0.03101,-4.25434,0.43852,8.80977,0.18659,-0.02339,-0.00767
0.05863,1.46622,0.47382,9.70252,0.17041,-0.03165,-0.03995,-4.26707,0.43638,8.79277,0.17013,-0.00284,0.00787
0.02126,1.44939,0.48614,9.72669,0.19042,0.02557,-0.05754,-4.26455,0.43785,8.83524,0.17401,-0.00896,-0.01346
0.05456,1.48437,0.48413,9.70185,0.17362,0.03062,-0.00180,-4.26717,0.44515,8.81491,0.21208,0.01910,0.01371
0.03044,1.46704,0.48192,9.68506,0.17700,-0.03545,0.01233,-4.28282,0.42034,8.83088,0.18859,-0.00769,0.04658
0.04112,1.46046,0.48382,9.69432,0.17367,-0.03084,-0.01896,-4.27300,0.43141,8.80563,0.18772,-0.00924,-0.01354
0.02834,1.46756,0.45842,9.67665,0.16056,0.00005,-0.00647,-4.27156,0.43881,8.79937,0.15492,-0.02435,-0.02802
0.02304,1.46702,0.48882,9.69710,0.17274,0.00544,-0.03074,-4.26996,0.46306,8.82880,0.15783,-0.01072,0.01266
-0.00566,1.47328,0.49423,9.68976,0.15424,-0.04727,0.00965,-4.26515,0.44376,8.81875,0.17683,-0.04083,-0.03626
0.04325,1.45668,0.49715,9.66924,0.20101,-0.00116,-0.01012,-4.26671,0.44686,8.83945,0.18902,0.02155,-0.03487
0.06138,1.48386,0.49007,9.65886,0.17710,-0.00401,-0.01868,-4.27901,0.46169,8.81870,0.18581,-0.01728,-0.02421
0.02702,1.46085,0.50947,9.65125,0.20533,0.03177,-0.00431,-4.26525,0.46079,8.82092,0.18793,-0.02524,0.00887
0.02227,1.48381,0.49513,9.67956,0.16868,-0.02824,0.01182,-4.26651,0.46832,8.83833,0.17602,-0.00037,-0.04098
0.00502,1.48067,0.50591,9.65122,0.19459,-0.01776,0.04583,-4.26638,0.45242,8.84052,0.23514,-0.00648,-0.02027
0.01433,1.47675,0.51266,9.67813,0.15627,-0.02921,-0.02744,-4.27430,0.44826,8.83634,0.16707,0.00053,0.00282
0.04045,1.45247,0.50498,9.65289,0.17988,0.01318,0.01152,-4.25935,0.46403,8.83157,0.16175,0.02728,-0.01885
0.01759,1.46426,0.49279,9.66379,0.14496,0.00945,-0.01107,-4.27123,0.45405,8.80464,0.21862,0.01175,-0.01097
0.02614,1.49773,0.48339,9.68904,0.16760,-0.01073,0.01699,-4.26924,0.45723,8.83968,0.18414,-0.04432,0.01925
0.03345,1.45493,0.50735,9.69053,0.17562,-0.02848,-0.01865,-4.27156,0.45875,8.81395,0.19449,0.01738,-0.02267
0.04634,1.45569,0.50689,9.70613,0.20567,0.02889,-0.03006,-4.26052,0.47749,8.81939,0.16592,0.01039,0.01188
0.04286,1.47264,0.50843,9.69695,0.16584,-0.02336,0.02765,-4.26667,0.45052,8.85471,0.18455,-0.03181,0.00378
0.00443,1.46670,0.50932,9.69003,0.19409,0.01987,0.01661,-4.28428,0.45475,8.82085,0.17337,0.00322,0.02447
0.03289,1.46728,0.50094,9.63085,0.17568,0.01006,-0.00796,-4.27542,0.46438,8.84104,0.19146,-0.00001,0.00288
0.02482,1.47073,0.50896,9.68731,0.19247,-0.01172,-0.01696,-4.25332,0.47678,8.81686,0.17607,0.00540,-0.01115
0.02236,1.46266,0.49575,9.67024,0.17277,-0.00234,-0.00437,-4.26887,0.49083,8.80117,0.18261,-0.00535,-0.01125
0.04235,1.44896,0.51570,9.70452,0.20960,0.00388,0.01737,-4.28185,0.45719,8.82509,0.18306,-0.05011,-0.01832
0.06255,1.46593,0.51939,9.69644,0.21279,-0.00952,0.01970,-4.26799,0.46005,8.83812,0.16958,-0.00814,0.01300
0.05574,1.47325,0.53844,9.69242,0.17435,-0.00190,0.00578,-4.26078,0.45783,8.84262,0.17241,0.00376,0.01158
0.04787,1.46880,0.52538,9.68857,0.14753,0.01401,-0.02543,-4.28065,0.47591,8.82992,0.18359,0.01782,0.02986
0.03404,1.45952,0.51883,9.72268,0.16450,0.01439,0.01218,-4.26576,0.48506,8.83326,0.17342,-0.00646,0.00779
0.00603,1.47037,0.53459,9.71078,0.17913,-0.00854,-0.00275,-4.25921,0.47731,8.81357,0.17115,0.00336,-0.00622
0.04621,1.45793,0.53960,9.66296,0.21731,-0.01714,0.03972,-4.25603,0.46360,8.83197,0.20859,-0.01965,0.01548
0.01497,1.47356,0.54625,9.70351,0.22613,-0.01018,0.00996,-4.25324,0.49346,8.82892,0.19901,-0.05210,0.01928
0.05665,1.46623,0.51545,9.67267,0.18604,-0.01772,0.03828,-4.25931,0.47294,8.80184,0.20301,-0.00149,-0.00444
0.01980,1.47682,0.54356,9.70851,0.18405,-0.00825,-0.00217,-4.26306,0.48179,8.80599,0.19733,0.05188,0.01605
0.02255,1.46821,0.52477,9.69395,0.17112,0.01098,0.01885,-4.24944,0.47846,8.81442,0.21167,-0.00380,-0.00308
0.06570,1.48183,0.53836,9.65990,0.18438,-0.00047,0.00142,-4.26738,0.45629,8.82075,0.14657,0.00599,0.00082
0.01326,1.46143,0.55649,9.67529,0.17529,-0.00677,0.00587,-4.28847,0.49377,8.77238,0.19614,-0.00996,0.01516
0.03532,1.47296,0.54114,9.69972,0.17423,0.00481,0.01272,-4.26096,0.49165,8.81610,0.18974,0.01590,-0.04047
0.00915,1.48836,0.55712,9.71193,0.18791,0.01795,-0.01508,-4.25300,0.49876,8.81102,0.16563,0.01334,-0.02415
0.02726,1.46769,0.54953,9.68673,0.17227,0.02041,0.03317,-4.27171,0.49835,8.81736,0.18626,-0.01795,-0.00430
0.00944,1.46255,0.55854,9.71079,0.19321,-0.03245,0.03469,-4.25593,0.51258,8.83174,0.18534,-0.01998,0.02301
0.01836,1.47077,0.54527,9.68549,0.20855,0.00734,0.02170,-4.27050,0.50692,8.84265,0.22191,-0.02006,0.01793
0.02464,1.45598,0.55603,9.67372,0.19416,-0.00080,0.01351,-4.25959,0.50597,8.82588,0.17068,0.00168,-0.03901
0.06870,1.46467,0.55902,9.67244,0.16437,0.01325,-0.00752,-4.24967,0.51429,8.80647,0.14501,-0.01949,0.00982
0.06366,1.46814,0.56112,9.71172,0.16960,-0.00326,0.01120,-4.27264,0.50849,8.84820,0.21338,0.01178,0.01194
0.01012,1.46390,0.56976,9.70090,0.20536,0.01164,0.00904,-4.26046,0.49433,8.77728,0.20107,-0.01064,0.00266
0.04809,1.46440,0.55465,9.64431,0.19009,0.00727,-0.03013,-4.27141,0.50560,8.85463,0.16495,0.04177,0.00685
0.01124,1.47432,0.55589,9.66134,0.17883,-0.02577,0.01184,-4.26383,0.50189,8.82251,0.19915,0.01284,0.02340
0.02027,1.47345,0.55678,9.67909,0.16793,0.02678,-0.02569,-4.28890,0.50612,8.85965,0.17313,0.02048,0.00699
-0.00094,1.47197,0.55015,9.70093,0.18196,-0.03281,0.01365,-4.25535,0.52421,8.84226,0.18765,-0.00829,0.00619
0.04092,1.47342,0.56652,9.71755,0.20804,-0.02313,0.02325,-4.26061,0.51550,8.82877,0.19247,0.01698,0.00077
0.00090,1.47260,0.54235,9.65548,0.20370,0.02172,-0.00152,-4.27313,0.51216,8.82112,0.14376,-0.00530,-0.00693
0.04737,1.45875,0.56527,9.69958,0.16085,-0.01195,0.00646,-4.28026,0.51026,8.80173,0.19550,-0.01887,0.01339
0.03794,1.47045,0.56028,9.71045,0.14139,-0.00846,0.01006,-4.24965,0.52526,8.81587,0.18177,0.00091,0.00784
0.04927,1.46955,0.56546,9.69280,0.17698,-0.00732,-0.00662,-4.25635,0.53059,8.83201,0.18326,0.00145,0.04959
0.05796,1.47314,0.58090,9.70264,0.18952,-0.03672,0.02660,-4.26721,0.50192,8.86932,0.20326,0.01366,-0.01449
-0.02519,1.46218,0.58665,9.68456,0.18648,0.01223,-0.00116,-4.26270,0.52916,8.79188,0.20349,-0.02336,0.01107
0.05959,1.46465,0.57628,9.70832,0.17407,-0.00183,0.00865,-4.27200,0.52618,8.82065,0.19347,-0.02500,0.03488
0.03504,1.46263,0.58210,9.70296,0.20397,-0.01495,-0.02066,-4.26548,0.52787,8.81525,0.19338,-0.01061,-0.00011
0.05034,1.47373,0.58126,9.67571,0.18803,-0.00856,0.01610,-4.27777,0.52650,8.85565,0.18426,-0.02764,0.00097
0.01675,1.47203,0.58687,9.67135,0.18801,0.01683,0.00108,-4.27100,0.52189,8.81787,0.16506,0.02878,0.00674
0.00406,1.46554,0.59558,9.69436,0.18449,0.02421,-0.02447,-4.27190,0.53576,8.82337,0.17560,-0.00542,-0.00212
0.04686,1.47665,0.58358,9.66657,0.15274,-0.04562,0.01819,-4.26683,0.52311,8.81724,0.20192,-0.01509,0.01161
0.02243,1.46442,0.59483,9.67908,0.18271,0.00786,-0.02520,-4.26473,0.54594,8.81567,0.20570,-0.01305,0.03645
0.03270,1.45768,0.56391,9.69578,0.16871,-0.00227,-0.01936,-4.26433,0.52658,8.83480,0.15691,0.00874,0.02540
-0.00957,1.45636,0.59551,9.67340,0.16670,0.00257,0.02527,-4.25762,0.51296,8.84381,0.19661,0.00631,-0.00576
-0.00106,1.46448,0.59496,9.68326,0.14109,0.01328,0.01919,-4.25033,0.55072,8.81863,0.16890,0.02667,-0.02245
-0.00427,1.46416,0.60042,9.64649,0.20629,0.04193,0.00889,-4.26597,0.54779,8.81460,0.20546,-0.01376,-0.00080
0.00868,1.45431,0.60518,9.68441,0.17181,-0.03984,0.03385,-4.25107,0.54454,8.82837,0.15114,0.02109,0.02433
0.02310,1.45306,0.58558,9.65389,0.19305,-0.01273,0.00590,-4.26608,0.52858,8.81886,0.17872,-0.01333,0.00248
0.01510,1.48324,0.59359,9.65232,0.20051,-0.01741,-0.02007,-4.26584,0.54475,8.79917,0.20211,-0.00064,0.02953
0.02817,1.47813,0.61478,9.67886,0.17791,-0.01536,-0.02056,-4.26541,0.52988,8.79699,0.17878,-0.00082,-0.00485
0.02947,1.46927,0.61761,9.69553,0.13925,-0.02406,0.00275,-4.26806,0.55497,8.85035,0.15466,-0.01669,-0.02762
0.03363,1.45466,0.59898,9.68645,0.19293,0.01768,0.02564,-4.25028,0.54641,8.81831,0.16996,0.02757,0.01760
0.00632,1.46206,0.60303,9.69549,0.17061,0.00932,0.03125,-4.26401,0.53890,8.79959,0.15704,-0.04612,0.02933
0.06160,1.45621,0.63618,9.67763,0.18200,-0.00696,0.03384,-4.27502,0.54666,8.83533,0.18763,0.01185,0.02504
0.03841,1.46622,0.60865,9.70799,0.22435,0.06523,0.00498,-4.24508,0.55457,8.79981,0.19260,-0.03560,-0.01135
0.00275,1.46772,0.60760,9.67903,0.17469,-0.03903,0.00707,-4.25284,0.55707,8.83107,0.17975,0.00173,0.00968
0.00217,1.46253,0.61417,9.63545,0.20741,0.01748,-0.00056,-4.24981,0.57108,8.80178,0.20798,-0.01694,0.00091
0.04378,1.46675,0.60986,9.70582,0.19331,0.01571,0.02346,-4.24716,0.56526,8.82253,0.20723,-0.02341,-0.00592
0.04909,1.46509,0.61959,9.68984,0.20865,0.04167,-0.02759,-4.27152,0.56386,8.77800,0.19398,-0.01486,0.02775
0.00588,1.47315,0.62781,9.66414,0.17549,-0.02630,-0.01137,-4.27487,0.56472,8.83761,0.19555,-0.02372,0.01247
-0.01596,1.45354,0.62395,9.67048,0.16453,0.00346,0.00516,-4.26676,0.56592,8.81805,0.16855,-0.01560,-0.02379
0.01763,1.45284,0.62896,9.69189,0.17321,0.00712,0.03534,-4.27768,0.57615,8.80389,0.17012,-0.03677,-0.00510
0.04208,1.46622,0.62290,9.66311,0.16873,-0.02492,-0.00874,-4.25304,0.56075,8.82968,0.19275,0.00101,0.04482
0.00628,1.46604,0.63178,9.70155,0.17010,-0.03046,0.02068,-4.26916,0.56229,8.79082,0.20777,0.04476,0.00022
0.01623,1.46975,0.62864,9.64908,0.20215,0.00489,-0.00670,-4.27698,0.56712,8.81484,0.16300,-0.00440,-0.03202
0.07071,1.48599,0.62529,9.68685,0.16994,0.01712,-0.01666,-4.26139,0.58024,8.81026,0.16259,-0.02415,0.00024
0.01846,1.45598,0.65622,9.67901,0.18469,0.00556,-0.01832,-4.26064,0.57865,8.76236,0.16182,0.01453,0.01815
0.05118,1.44408,0.63468,9.71219,0.15580,0.00426,0.00483,-4.26757,0.58966,8.80545,0.19185,-0.02356,0.01480
0.00860,1.46792,0.61216,9.69236,0.17316,-0.00625,0.01519,-4.27309,0.59946,8.81043,0.21169,-0.00940,0.02511
0.06970,1.47801,0.63232,9.68618,0.21653,-0.00382,-0.03985,-4.27673,0.58637,8.80894,0.16273,0.01710,0.04114
0.02326,1.47314,0.63477,9.67785,0.21827,-0.01175,0.02897,-4.27822,0.58643,8.82182,0.17115,-0.00226,0.00076
0.03635,1.46399,0.64108,9.69191,0.17390,0.05287,0.01706,-4.27436,0.56068,8.83089,0.20597,-0.00014,-0.00747
0.03714,1.45130,0.65364,9.64632,0.18081,-0.02559,0.00202,-4.26210,0.58935,8.84908,0.17237,0.00031,-0.01650
0.00012,1.45552,0.63646,9.65520,0.15403,-0.00879,0.00787,-4.26171,0.56267,8.84278,0.21673,-0.02533,0.04641
0.04640,1.46816,0.64124,9.69080,0.16299,-0.00983,-0.02453,-4.26092,0.59174,8.78731,0.18081,0.04336,-0.03607
0.05802,1.48312,0.64427,9.72718,0.15738,0.05799,0.01256,-4.27547,0.59802,8.81985,0.17798,-0.00814,-0.01263
0.02362,1.46924,0.65843,9.69257,0.13399,-0.02414,0.01948,-4.25307,0.60299,8.79908,0.18894,-0.03858,0.01508
0.04382,1.46093,0.65064,9.68542,0.19597,0.01180,0.00578,-4.27166,0.58488,8.81086,0.18554,-0.02340,0.00056
0.08900,1.47956,0.64793,9.68949,0.20615,0.01349,-0.02697,-4.28925,0.59932,8.82775,0.15632,-0.02637,-0.00628
0.01653,1.45916,0.65458,9.69407,0.18790,0.00674,0.01527,-4.25899,0.59531,8.78933,0.19171,0.01590,0.00001
-0.01947,1.47470,0.65115,9.68295,0.19265,0.05796,0.03681,-4.27668,0.59308,8.79212,0.16863,0.03124,-0.02732
0.01179,1.48110,0.65530,9.71038,0.14036,0.02604,0.01649,-4.26116,0.59727,8.79513,0.17924,-0.00222,0.01955
0.07984,1.47022,0.65051,9.67071,0.20204,0.00017,-0.00163,-4.28315,0.60347,8.79651,0.19153,-0.01337,-0.00550
0.00783,1.46609,0.67583,9.68276,0.18065,-0.02260,0.00115,-4.26558,0.60244,8.81384,0.22114,0.01723,0.00137
0.05370,1.47139,0.67960,9.68107,0.15559,-0.02147,-0.01201,-4.26880,0.60432,8.80857,0.18855,0.01899,0.00406
0.00325,1.47762,0.66754,9.69865,0.17081,-0.03929,0.02880,-4.27765,0.59410,8.83414,0.18638,-0.01110,-0.00289
0.01052,1.46028,0.67599,9.67335,0.17230,-0.02938,0.00363,-4.26051,0.60815,8.84436,0.18805,0.00499,0.02146
0.07807,1.47294,0.65855,9.67019,0.18316,0.00248,-0.02113,-4.25163,0.61265,8.79427,0.16937,0.02643,-0.00525
0.01194,1.46147,0.66851,9.66831,0.20318,-0.03150,-0.03828,-4.28719,0.61274,8.80624,0.19568,0.03743,0.01216
0.03374,1.46189,0.67857,9.67328,0.18868,0.01050,0.01725,-4.26505,0.61631,8.79530,0.17209,-0.00618,0.02114
0.04675,1.46556,0.66817,9.70140,0.18105,0.00044,-0.01580,-4.26588,0.61126,8.79580,0.17593,-0.04992,0.02309
0.05035,1.46915,0.65304,9.68278,0.17837,0.00007,-0.01653,-4.26749,0.59630,8.78291,0.16917,-0.01854,-0.00968
0.06203,1.43299,0.68388,9.69130,0.18368,0.03117,-0.04018,-4.27744,0.59865,8.85325,0.19609,0.01501,-0.00108
0.00199,1.45330,0.67987,9.66284,0.18774,-0.01547,0.01308,-4.27589,0.63413,8.80717,0.18692,-0.01693,0.01299
0.04643,1.47041,0.68378,9.67036,0.17275,-0.01169,0.02507,-4.26638,0.63413,8.83887,0.16035,-0.01388,0.00694
0.03672,1.46242,0.67804,9.69389,0.20382,-0.01620,0.02590,-4.26580,0.61032,8.79603,0.19951,-0.01187,-0.00834
0.01076,1.46080,0.68159,9.67968,0.17880,-0.02075,0.03503,-4.24763,0.61229,8.84126,0.16650,0.00074,-0.01590
0.07733,1.46141,0.68293,9.66163,0.21329,0.01582,-0.00378,-4.26898,0.63331,8.80101,0.18230,0.02553,0.00262
0.02127,1.46078,0.68356,9.68657,0.21235,-0.02531,0.00153,-4.27706,0.60951,8.83350,0.15822,-0.01744,0.01378
0.04867,1.46193,0.69879,9.72800,0.18714,-0.03062,0.01987,-4.26238,0.62056,8.79175,0.19326,-0.01146,0.03825
-0.02013,1.47666,0.69775,9.67652,0.18532,-0.00686,-0.00469,-4.26707,0.62473,8.82039,0.20468,0.00059,-0.01219
-0.00793,1.46155,0.69302,9.65871,0.19164,-0.00664,0.00263,-4.26171,0.63661,8.82418,0.18989,-0.00998,0.01917
0.00976,1.44052,0.69363,9.65598,0.21301,0.02093,-0.02027,-4.29483,0.62938,8.81206,0.18130,-0.01010,0.00746
0.03098,1.45305,0.69446,9.63342,0.21395,0.03577,-0.01502,-4.27275,0.63819,8.79052,0.21947,-0.01242,-0.00436
0.01244,1.46110,0.69294,9.65519,0.18074,-0.00068,-0.00246,-4.26994,0.63881,8.82419,0.18243,-0.02281,-0.03198
0.03652,1.46603,0.70112,9.65843,0.16287,0.01400,0.02332,-4.27379,0.64055,8.82400,0.21723,-0.00998,-0.02531
0.03178,1.46078,0.68360,9.65854,0.18155,0.00554,0.03060,-4.28360,0.63167,8.84075,0.20162,-0.04283,0.01761
0.01999,1.46064,0.69999,9.68578,0.20243,0.00387,0.04635,-4.25840,0.65417,8.82966,0.16142,0.01413,0.00427
0.00692,1.46252,0.70900,9.67378,0.17220,-0.00964,0.00721,-4.27851,0.64047,8.82331,0.17434,0.02810,-0.01932
0.02676,1.48091,0.70795,9.66542,0.19820,0.03322,0.01940,-4.26893,0.63909,8.77586,0.21136,-0.02004,0.00756
0.02604,1.46132,0.71385,9.67131,0.22061,0.00090,0.01389,-4.29507,0.64687,8.82106,0.18595,-0.02106,-0.02451
0.01777,1.45477,0.71115,9.68313,0.22919,-0.02761,0.01653,-4.26782,0.64466,8.77274,0.21017,-0.00060,-0.00475
0.06465,1.46627,0.72163,9.67995,0.20972,0.00595,0.01147,-4.25666,0.64405,8.83612,0.21488,0.01894,-0.02251
-0.00339,1.48614,0.72123,9.66971,0.21249,0.01535,-0.01665,-4.26637,0.63851,8.79063,0.19186,-0.03150,0.03302
0.02958,1.46851,0.72007,9.66087,0.15282,0.02035,-0.00983,-4.27502,0.66241,8.77942,0.14174,0.02839,-0.00160
0.03767,1.45893,0.71418,9.64943,0.16648,0.00622,0.02352,-4.26432,0.66662,8.81297,0.15275,-0.00035,-0.03820
0.05101,1.45468,0.73142,9.68575,0.17689,-0.02032,-0.02357,-4.27441,0.65176,8.82498,0.20071,-0.02003,0.00425
0.02674,1.46767,0.71066,9.67522,0.19302,0.00461,0.02632,-4.26339,0.65394,8.83460,0.20147,-0.04009,-0.02396
0.01387,1.45405,0.73056,9.66330,0.17151,0.04513,0.00050,-4.26522,0.65645,8.79674,0.15128,0.01008,0.04072
0.01597,1.47067,0.73731,9.62912,0.17394,0.01567,-0.00631,-4.25635,0.63964,8.81931,0.19967,-0.02298,0.00573
0.04955,1.45185,0.70494,9.66538,0.19763,0.01583,-0.01803,-4.27833,0.67532,8.81897,0.19884,-0.00284,-0.00486
0.04005,1.47265,0.72778,9.66810,0.15668,-0.01171,0.01245,-4.26721,0.65016,8.76912,0.17332,-0.00059,0.00442
0.00505,1.46452,0.72083,9.65419,0.18626,-0.01253,-0.00648,-4.27370,0.67878,8.80898,0.19255,-0.00568,-0.00797
0.04636,1.48517,0.73933,9.65511,0.19223,0.00615,0.00675,-4.27649,0.68576,8.80487,0.15225,-0.01342,0.00896
0.07342,1.45523,0.72626,9.70204,0.16771,0.01812,0.04211,-4.25174,0.66775,8.82932,0.18896,0.00024,-0.01795
0.03591,1.45540,0.74163,9.69230,0.20485,-0.01293,0.01616,-4.27235,0.67675,8.83191,0.21710,0.01001,-0.01186
0.01891,1.46001,0.73553,9.68247,0.19011,-0.01096,-0.04337,-4.27105,0.67313,8.80780,0.18843,-0.03757,0.01725
0.00060,1.44189,0.74628,9.66654,0.18565,-0.02622,-0.02531,-4.26950,0.69502,8.78720,0.18068,0.01655,0.03167
0.05122,1.47011,0.73822,9.67045,0.15080,-0.02563,-0.00029,-4.27392,0.67372,8.80488,0.18589,-0.02828,0.01015
0.00921,1.47638,0.72704,9.65086,0.17166,0.00978,-0.01526,-4.26248,0.68258,8.81244,0.20149,-0.00041,0.00323
0.03759,1.46776,0.74439,9.65178,0.17615,-0.01573,-0.05727,-4.26871,0.66717,8.79695,0.17312,-0.01089,-0.00003
0.02900,1.47399,0.73102,9.69924,0.19040,-0.01107,0.00502,-4.27290,0.67398,8.78597,0.15268,0.01402,0.00400
0.04070,1.45883,0.74841,9.65307,0.17489,0.03769,0.01295,-4.26629,0.67981,8.81245,0.20932,0.01879,-0.01149
0.01155,1.45270,0.75285,9.68029,0.17944,-0.00866,0.02239,-4.27405,0.68608,8.82744,0.16898,0.00093,0.00145
0.02442,1.44713,0.74512,9.69663,0.20378,-0.02200,0.00554,-4.27456,0.67880,8.80180,0.17359,-0.01123,0.02084
0.03328,1.45791,0.76267,9.66353,0.14919,0.01054,0.01802,-4.28979,0.68851,8.81646,0.21975,-0.02909,0.01079
0.03762,1.47814,0.74685,9.64650,0.17399,-0.01751,0.02440,-4.26842,0.70066,8.78551,0.15893,0.00460,-0.00314
0.03726,1.46010,0.76346,9.65963,0.20783,-0.00362,-0.00242,-4.27206,0.69169,8.82795,0.20592,0.00424,0.02226
0.00220,1.46577,0.77886,9.66514,0.18614,0.02988,-0.00485,-4.26821,0.69703,8.77501,0.14842,0.01621,0.02210
0.01115,1.45186,0.76481,9.63552,0.17022,0.02625,-0.00258,-4.26812,0.68847,8.81156,0.16175,-0.00526,0.01238
0.07171,1.46455,0.74833,9.66214,0.20319,0.00543,0.00596,-4.25537,0.69153,8.81195,0.17501,0.00026,-0.01678
0.03526,1.46706,0.74953,9.68827,0.21444,0.00388,0.01516,-4.27727,0.69458,8.76672,0.17564,0.02943,-0.00766
0.04261,1.47689,0.76266,9.65815,0.21417,-0.01382,-0.02260,-4.27551,0.69478,8.81328,0.20004,-0.01740,0.01459
0.06005,1.45620,0.76563,9.65053,0.15371,-0.01070,-0.00072,-4.26182,0.68503,8.76139,0.18505,-0.02578,0.02187
0.05375,1.46713,0.76371,9.67232,0.17061,0.00134,-0.01864,-4.27036,0.69446,8.79659,0.17692,0.03093,-0.02029
0.00162,1.45740,0.76369,9.69950,0.19083,0.02235,0.00638,-4.28038,0.70515,8.82813,0.15515,0.04454,-0.05050
0.00748,1.47461,0.77569,9.64851,0.17954,-0.03401,0.01568,-4.27939,0.70669,8.79904,0.16822,0.02485,-0.01429
-0.00284,1.47377,0.76880,9.65380,0.16255,-0.02215,-0.02025,-4.26783,0.69291,8.80127,0.16598,0.01840,0.00531
0.04381,1.49184,0.77261,9.68469,0.17521,0.00068,0.00814,-4.26926,0.71067,8.81682,0.17113,-0.01416,0.01928
0.05087,1.47660,0.78682,9.63200,0.21059,-0.00770,-0.00166,-4.25313,0.71147,8.82075,0.16650,-0.00626,0.00219
0.04752,1.49277,0.78406,9.64199,0.16666,0.01874,-0.00460,-4.23975,0.70230,8.79731,0.23367,-0.03080,0.00886
0.02167,1.48357,0.77585,9.68116,0.18726,0.01162,0.01314,-4.26471,0.72286,8.78352,0.14730,-0.02953,0.03804
0.02279,1.46030,0.79543,9.65226,0.17393,-0.01244,-0.05101,-4.26846,0.71396,8.79105,0.20663,0.00606,0.02172
0.05620,1.45845,0.77242,9.68240,0.18115,0.00395,0.00776,-4.25704,0.70160,8.82120,0.18927,-0.00174,-0.02478
0.03378,1.46388,0.77971,9.67076,0.17639,0.01903,-0.01508,-4.26562,0.71840,8.81346,0.18034,-0.02604,-0.02785
0.03460,1.44961,0.78946,9.69209,0.16874,-0.01923,0.00984,-4.27962,0.73855,8.81058,0.17665,-0.01043,-0.01749
0.00236,1.44704,0.79342,9.66187,0.18539,-0.01641,-0.00336,-4.25571,0.71823,8.79745,0.15038,-0.01992,0.00667
0.05061,1.49895,0.79703,9.64074,0.16406,0.01438,0.01445,-4.28443,0.69171,8.83768,0.17519,0.01128,0.00205
0.00881,1.44626,0.79332,9.64117,0.16936,-0.01563,0.00419,-4.27153,0.73053,8.79064,0.17156,0.00302,-0.00143
-0.03323,1.46651,0.79498,9.70033,0.18078,0.01391,-0.00819,-4.25853,0.70320,8.82948,0.21040,0.02094,0.02175
0.04125,1.47922,0.81768,9.67762,0.18679,0.02075,-0.01252,-4.26374,0.71743,8.81250,0.18075,-0.00886,0.01816
0.00403,1.46070,0.79260,9.65374,0.19038,0.01181,0.00202,-4.26643,0.74707,8.81912,0.18779,-0.01498,0.01155
0.06463,1.48002,0.80228,9.65787,0.16395,0.01548,0.00972,-4.26195,0.71299,8.78887,0.15429,0.03397,-0.02024
0.04372,1.46090,0.79924,9.67910,0.20893,-0.02928,0.02905,-4.26382,0.72270,8.81654,0.18509,0.02233,-0.02758
0.01554,1.49003,0.80350,9.64844,0.21064,0.01244,0.01218,-4.24431,0.74914,8.79617,0.19487,-0.00695,-0.02182
0.01343,1.47209,0.80181,9.68883,0.18124,0.00081,0.01456,-4.26717,0.74315,8.77926,0.20387,0.02635,0.01529
0.02921,1.46100,0.81389,9.67474,0.18547,-0.02170,-0.02654,-4.26844,0.73380,8.80935,0.18289,-0.00180,0.01757
0.02386,1.45530,0.80945,9.67692,0.18843,-0.01152,-0.03424,-4.27052,0.73683,8.79843,0.15663,0.00827,-0.00185
0.02877,1.46821,0.81752,9.67161,0.16054,0.00241,-0.03271,-4.28472,0.75629,8.80578,0.20053,0.01034,0.02864
0.04231,1.46238,0.82031,9.65506,0.20023,0.02711,0.00935,-4.26740,0.73951,8.82668,0.15293,-0.00830,-0.01246
0.08218,1.47643,0.82150,9.69536,0.18615,0.00040,0.00266,-4.26395,0.75193,8.79677,0.16623,0.02482,0.04104
0.00002,1.45728,0.83287,9.68161,0.20955,0.02904,0.01996,-4.25691,0.74500,8.81900,0.18490,-0.00125,0.03274
0.08872,1.46941,0.80066,9.68976,0.18990,0.03158,0.00685,-4.26284,0.74664,8.80610,0.19541,-0.00080,0.01047
0.03344,1.47530,0.82249,9.66011,0.17345,-0.01431,-0.02360,-4.26322,0.74757,8.80258,0.16550,-0.00497,0.01334
0.01975,1.47212,0.82546,9.68274,0.21600,-0.00606,0.01770,-4.25338,0.74753,8.83945,0.16695,0.00860,0.01195
0.04216,1.46058,0.84037,9.64851,0.16738,0.01564,0.00049,-4.27757,0.74882,8.79787,0.21368,-0.00337,-0.02625
0.00539,1.47021,0.81814,9.64015,0.19076,-0.01106,-0.01329,-4.27776,0.74679,8.79254,0.16645,0.00255,-0.02852
0.04448,1.47031,0.83547,9.68320,0.17592,-0.01921,0.03366,-4.26888,0.76969,8.79222,0.18819,0.00948,-0.03946
0.01516,1.45890,0.82594,9.67938,0.18462,-0.01880,0.00019,-4.24757,0.75249,8.78996,0.20569,-0.02403,0.04307
0.01251,1.46318,0.81557,9.65077,0.20250,-0.00982,-0.02943,-4.28118,0.76526,8.82017,0.16279,0.02535,-0.02145
0.03254,1.48700,0.83218,9.64429,0.19077,-0.00527,0.01809,-4.26015,0.76369,8.81927,0.15201,-0.03682,0.03150
0.02137,1.46725,0.84148,9.67925,0.17456,-0.02247,-0.00707,-4.28043,0.76555,8.83529,0.18632,-0.01949,0.01545
-0.00417,1.46863,0.82290,9.64157,0.18253,-0.03514,0.00796,-4.26492,0.77032,8.77755,0.17130,-0.00001,0.01920
0.00638,1.46362,0.83769,9.69952,0.18577,-0.01928,0.00318,-4.27294,0.76340,8.80130,0.17894,0.02047,0.01399
0.00246,1.46742,0.83581,9.63876,0.20119,0.02500,-0.00896,-4.26925,0.79149,8.79305,0.16988,0.00789,0.00399
-0.00647,1.47177,0.85372,9.68087,0.15221,0.02827,-0.00151,-4.27892,0.77554,8.78875,0.19736,0.01131,-0.00648
0.04802,1.48367,0.85087,9.64272,0.18286,-0.00179,-0.02065,-4.25905,0.75232,8.79897,0.19006,-0.00040,-0.01954
0.00225,1.46308,0.85480,9.64711,0.16534,-0.00967,-0.01819,-4.26155,0.76411,8.78704,0.20423,0.04891,0.01025
-0.00202,1.47993,0.85580,9.66638,0.17525,-0.02539,-0.00367,-4.25388,0.77057,8.79152,0.18271,0.01577,-0.00312
0.05751,1.47329,0.83490,9.67121,0.20954,-0.00900,-0.00192,-4.25466,0.77550,8.80418,0.16530,-0.00675,-0.04935
0.02699,1.46627,0.85611,9.66940,0.17129,-0.00258,0.01628,-4.26648,0.76590,8.77741,0.16145,-0.02875,0.01652
0.04706,1.47762,0.86977,9.67747,0.20108,0.02885,-0.02651,-4.25792,0.77046,8.79434,0.17883,0.03988,-0.00896
0.03332,1.47157,0.86924,9.65267,0.17813,0.04244,0.01556,-4.27040,0.77621,8.81080,0.19653,0.00645,0.00635
0.03256,1.47046,0.85409,9.68607,0.14102,0.03649,0.02640,-4.27002,0.78095,8.80115,0.17130,-0.00253,-0.00812
0.03299,1.47115,0.85262,9.63655,0.16599,0.03612,0.01073,-4.26646,0.79215,8.78237,0.23326,0.00144,-0.03574
0.01296,1.47045,0.86093,9.62366,0.17193,-0.00329,0.01033,-4.28240,0.78287,8.80263,0.15303,0.02234,-0.00430
0.01362,1.46647,0.84747,9.67348,0.18255,0.03517,0.03924,-4.25628,0.76915,8.79874,0.22477,0.03755,0.01890
0.04181,1.46601,0.86723,9.63779,0.21341,0.01307,0.00678,-4.26087,0.78117,8.82404,0.18860,-0.02691,0.01198
0.01393,1.47022,0.85985,9.67139,0.16506,0.03018,-0.01729,-4.26684,0.79100,8.80331,0.16492,0.01749,0.01683
-0.01453,1.45093,0.86082,9.65724,0.20408,0.01778,-0.01131,-4.27643,0.78045,8.82502,0.17692,0.00495,-0.00059
0.04919,1.46505,0.86080,9.67950,0.22133,-0.01667,0.00494,-4.25782,0.76844,8.79678,0.18755,-0.01024,-0.00550
0.01319,1.45205,0.87802,9.64855,0.19451,-0.00230,0.04064,-4.28161,0.79305,8.83224,0.19962,-0.00910,-0.01319
0.07709,1.46658,0.84526,9.65783,0.16878,0.00600,0.03005,-4.26310,0.77536,8.81006,0.18105,-0.00116,-0.02366
-0.00066,1.45388,0.86318,9.69660,0.17717,0.00872,0.00636,-4.25985,0.80277,8.80919,0.20040,0.01423,0.01198
0.04642,1.47212,0.86768,9.65635,0.16445,-0.00564,-0.02200,-4.26955,0.80378,8.77929,0.16267,0.02126,-0.00421
0.02031,1.48217,0.87945,9.65719,0.20686,0.01443,0.01285,-4.26392,0.78189,8.81433,0.17253,0.03848,0.00727
0.05617,1.49054,0.89863,9.64422,0.19438,0.02469,-0.03798,-4.27941,0.82178,8.79941,0.17274,0.02771,0.01737
0.02230,1.47940,0.87722,9.64549,0.18298,0.01734,0.01792,-4.26571,0.79860,8.78841,0.20622,0.02666,-0.01691
0.01615,1.47906,0.88420,9.65229,0.18222,-0.03374,0.02410,-4.25876,0.79894,8.82166,0.18473,-0.01568,0.00783
0.00908,1.47627,0.88842,9.63383,0.17024,0.01403,0.00200,-4.28278,0.82693,8.76744,0.16816,0.06479,0.01024
0.02042,1.46346,0.88838,9.67072,0.16246,-0.02722,-0.00297,-4.27446,0.81154,8.78930,0.17461,-0.02648,0.03656
0.03474,1.48742,0.87999,9.66503,0.15337,-0.01180,0.03210,-4.27477,0.80444,8.76745,0.16454,0.01370,-0.02347
0.00805,1.45435,0.88389,9.66807,0.15999,-0.01568,0.00740,-4.26667,0.81682,8.80171,0.16538,0.00365,0.00074
0.02256,1.47358,0.89364,9.65068,0.18251,0.00505,0.02910,-4.25493,0.81544,8.78578,0.17596,0.00076,0.00400
0.00342,1.46732,0.88021,9.64009,0.18918,-0.01362,-0.01092,-4.25066,0.78950,8.79634,0.16130,0.03666,0.01625
0.02146,1.46517,0.87125,9.66645,0.19445,0.00509,0.00015,-4.25324,0.82057,8.78455,0.20923,-0.02610,0.04001
0.04620,1.47375,0.89123,9.67344,0.22357,-0.01234,-0.02831,-4.25440,0.80557,8.78821,0.18565,0.01021,-0.01412
0.04226,1.46698,0.90170,9.66670,0.15049,-0.00323,0.01223,-4.26629,0.82024,8.76684,0.14454,0.01268,0.01519
0.05361,1.46837,0.89005,9.64595,0.20459,-0.01724,-0.01749,-4.27337,0.82452,8.80523,0.18532,0.00912,0.01153
0.03966,1.44945,0.89525,9.67365,0.16866,0.00072,0.01243,-4.27833,0.82688,8.73502,0.18886,0.01414,0.00044
0.01561,1.46804,0.90552,9.69520,0.15905,-0.01216,-0.01119,-4.25053,0.82142,8.79294,0.19132,0.01693,-0.00300
0.02673,1.46169,0.89773,9.64070,0.16341,-0.02712,0.00218,-4.25260,0.82264,8.80568,0.20333,-0.00498,0.00768
0.02998,1.45784,0.90324,9.64164,0.15514,0.00117,-0.03585,-4.24755,0.81818,8.82490,0.15465,-0.01334,0.01153
0.01503,1.46897,0.89076,9.66812,0.17757,0.00503,0.05098,-4.27357,0.81647,8.81609,0.16666,0.01597,0.00820
0.01984,1.44701,0.89193,9.66927,0.19140,0.01133,0.00058,-4.27361,0.81056,8.76553,0.20517,-0.01435,0.02086
0.02419,1.46287,0.91156,9.66708,0.19925,0.01655,-0.01262,-4.25464,0.84113,8.79898,0.18622,-0.00541,-0.01675
0.02488,1.46816,0.91115,9.64998,0.18411,0.00559,0.01722,-4.25953,0.80842,8.78092,0.20684,0.00424,-0.02092
0.02799,1.47037,0.91851,9.63193,0.18110,-0.00662,-0.00396,-4.25506,0.84600,8.77785,0.17723,-0.02061,-0.00164
0.05654,1.47011,0.92021,9.67069,0.18372,0.00065,-0.00049,-4.27800,0.82215,8.83138,0.15642,-0.01055,0.00949
0.01609,1.46377,0.91052,9.65529,0.19723,-0.01282,-0.01984,-4.27706,0.84447,8.80979,0.19521,0.03084,-0.00701
0.01084,1.46034,0.91447,9.63741,0.14142,-0.01765,-0.00742,-4.26123,0.83375,8.79281,0.19191,0.00929,0.02527
0.01248,1.47144,0.92947,9.65043,0.19928,0.02722,-0.03057,-4.26038,0.83127,8.80143,0.15706,0.01741,-0.00072
0.06798,1.46083,0.90322,9.65853,0.17066,-0.01535,0.00024,-4.28080,0.84745,8.79118,0.16322,0.00601,-0.01072
0.04481,1.45213,0.91650,9.65778,0.17507,-0.00909,0.00603,-4.25669,0.84172,8.81100,0.19756,-0.01149,0.02187
0.05350,1.47775,0.93545,9.66258,0.19396,0.01553,-0.02025,-4.26127,0.83697,8.78475,0.17692,0.00380,-0.03231
0.03532,1.48038,0.91334,9.67890,0.19024,-0.01273,0.03824,-4.27891,0.82656,8.80669,0.21105,-0.00618,0.02249
0.06063,1.44770,0.92397,9.62452,0.22255,0.00173,0.03157,-4.26977,0.82610,8.80205,0.15062,0.02850,-0.00749
0.05699,1.47015,0.94464,9.64637,0.17694,-0.02890,0.00883,-4.23962,0.83812,8.80184,0.19032,-0.03048,0.01104
0.04398,1.47046,0.92996,9.63822,0.17451,-0.01963,-0.02620,-4.25752,0.85580,8.79345,0.15815,-0.02175,0.02034
0.01075,1.46515,0.93463,9.66470,0.18299,0.00311,-0.01104,-4.25866,0.83350,8.81708,0.15837,-0.02351,-0.00267
0.01142,1.47094,0.94815,9.64908,0.18788,0.03208,-0.01939,-4.26191,0.85042,8.79018,0.18147,-0.01169,0.02468
0.02362,1.46365,0.92359,9.64805,0.15990,0.01707,-0.02294,-4.26746,0.87623,8.82365,0.15247,-0.00358,-0.00258
0.05863,1.46196,0.93867,9.64787,0.18592,-0.00832,-0.02452,-4.27876,0.86619,8.80616,0.17978,0.00625,-0.02404
-0.01944,1.47297,0.94675,9.63645,0.19266,0.00568,-0.02393,-4.27271,0.84240,8.82984,0.19345,0.00506,0.02384
0.00954,1.45362,0.95031,9.65733,0.19312,0.00676,-0.00100,-4.26341,0.84104,8.81521,0.16199,0.02575,0.00653
0.02277,1.47558,0.95180,9.65727,0.19515,-0.01007,0.02150,-4.26244,0.87340,8.83647,0.18169,-0.01740,-0.00179
0.05300,1.47821,0.93883,9.65832,0.21670,0.02482,0.04076,-4.26216,0.86540,8.76293,0.15567,0.01538,-0.00995
-0.00592,1.46279,0.93777,9.67229,0.19317,-0.04321,0.03608,-4.27743,0.86216,8.81349,0.19148,0.00914,-0.01749
0.02353,1.45390,0.94667,9.64312,0.21515,0.01619,-0.00764,-4.28665,0.85104,8.83919,0.18159,0.01251,-0.01545
0.05216,1.45649,0.95649,9.66437,0.19366,-0.00977,0.01111,-4.26678,0.88105,8.79385,0.15446,-0.00399,0.01941
0.07082,1.47811,0.95037,9.63570,0.20722,0.00813,-0.01531,-4.26895,0.85676,8.80203,0.16728,-0.00835,0.01370
-0.01659,1.46819,0.94600,9.67324,0.20930,0.01449,0.03019,-4.27861,0.87502,8.78125,0.16578,0.01744,0.00816
0.05344,1.46928,0.96338,9.63893,0.17508,0.00903,0.00259,-4.24901,0.86477,8.79299,0.19933,-0.01257,-0.02078
0.03270,1.47381,0.94636,9.65378,0.16380,0.02553,-0.02894,-4.25012,0.86722,8.74608,0.18662,0.00945,-0.00306
0.03037,1.46594,0.97126,9.67565,0.15197,-0.03691,0.01109,-4.25051,0.88428,8.79816,0.18469,0.00388,0.01482
-0.00472,1.47120,0.97579,9.61026,0.18082,0.01806,-0.00412,-4.27757,0.85950,8.78207,0.15756,-0.03305,0.00638
0.04911,1.44486,0.97725,9.63987,0.15814,-0.01125,-0.02241,-4.25597,0.86163,8.80346,0.15980,0.01266,-0.00779
0.06291,1.45187,0.97882,9.66352,0.21049,0.02749,0.00279,-4.27098,0.88336,8.79685,0.16328,0.01933,0.02290
0.01251,1.47908,0.94903,9.61622,0.19351,0.03475,-0.02968,-4.27510,0.88105,8.81734,0.18190,0.00035,-0.00796
0.00092,1.47067,0.97012,9.62278,0.17902,0.03289,0.02874,-4.27486,0.89663,8.79547,0.18203,-0.01121,-0.04238
0.03263,1.46648,0.95987,9.66609,0.17170,-0.02915,0.02459,-4.28517,0.86733,8.76605,0.18945,-0.00661,-0.00995
0.05804,1.45266,0.98852,9.64329,0.17203,-0.02042,-0.00968,-4.26061,0.88933,8.79094,0.22018,-0.02064,-0.00069
0.05219,1.45397,0.97410,9.66246,0.18387,-0.00614,0.02336,-4.26739,0.89618,8.81117,0.16765,0.00521,-0.01713
0.02917,1.46416,0.99634,9.69939,0.14294,-0.01049,0.00013,-4.24877,0.88862,8.77646,0.14734,-0.00224,-0.00343
0.04295,1.46860,0.97675,9.61518,0.16623,0.02417,-0.01691,-4.27033,0.89131,8.79919,0.19206,-0.01409,-0.01873
0.01500,1.46378,0.97261,9.65449,0.22008,0.02465,-0.03626,-4.27862,0.90215,8.79493,0.16587,0.04346,0.00352
0.02309,1.46676,0.98632,9.62608,0.19727,0.00872,0.00127,-4.26646,0.91125,8.77382,0.17151,-0.00120,-0.05605
0.01242,1.46344,0.97463,9.62896,0.21290,-0.01018,-0.00741,-4.27271,0.88184,8.79362,0.22240,-0.00769,-0.02727
0.05665,1.47504,0.97431,9.66508,0.16242,-0.01871,0.00410,-4.27212,0.90537,8.80937,0.15899,-0.00231,0.03367
0.02073,1.45104,0.98968,9.64873,0.19945,0.01848,0.00043,-4.26780,0.89384,8.82075,0.11549,0.01805,0.00419
0.03966,1.48289,0.98812,9.68924,0.13525,0.01893,-0.02198,-4.27550,0.89786,8.79811,0.12196,-0.02099,-0.00021
0.01669,1.46992,1.02539,9.64733,0.15859,0.03177,0.00581,-4.27657,0.90724,8.74753,0.18255,-0.02279,-0.00130
0.05846,1.47470,0.99345,9.63612,0.19629,-0.00944,-0.02918,-4.26941,0.89967,8.79387,0.15405,-0.03397,0.00239
0.03110,1.46876,0.99776,9.62988,0.18686,-0.03053,-0.00283,-4.25155,0.90499,8.79680,0.20418,0.01722,0.01028
0.05183,1.47703,0.98477,9.62552,0.16543,-0.05102,0.01660,-4.26698,0.88974,8.76860,0.16845,-0.00380,-0.01243
0.05440,1.47107,1.00320,9.62992,0.16294,-0.00725,0.02418,-4.26216,0.91882,8.81056,0.17090,-0.01859,0.04146
0.05802,1.46299,0.99839,9.63887,0.19577,-0.00645,-0.02629,-4.26559,0.88628,8.76498,0.20929,0.03851,0.02620
-0.00497,1.47629,1.00620,9.65684,0.18177,0.02417,-0.00352,-4.24731,0.91510,8.78254,0.18158,-0.00251,-0.01249
0.01949,1.45993,1.01326,9.63979,0.19119,-0.01191,-0.00622,-4.26628,0.91188,8.78986,0.18531,0.01025,0.02314
0.04220,1.46356,1.00011,9.60990,0.17521,0.01564,0.00361,-4.29075,0.90177,8.76267,0.19358,-0.03680,0.05443
0.03200,1.45774,1.00575,9.65746,0.15860,-0.00734,0.00251,-4.26810,0.92843,8.77745,0.18762,0.00134,-0.00090
0.03883,1.46465,1.00093,9.63971,0.15190,-0.01473,0.01704,-4.26326,0.90265,8.81663,0.17571,-0.01923,0.03680
0.04755,1.45010,0.99974,9.69280,0.19538,-0.00464,-0.02902,-4.25755,0.91471,8.78573,0.14522,0.02950,0.00460
0.00573,1.47252,1.00704,9.64359,0.18321,-0.01551,0.01442,-4.27883,0.91570,8.79365,0.15999,0.00935,-0.00947
0.03595,1.47260,1.00659,9.67847,0.18307,0.04698,-0.01520,-4.25698,0.91568,8.79034,0.15650,0.01170,-0.01826
0.03200,1.46375,1.01839,9.67020,0.14863,-0.02403,0.00415,-4.25511,0.92290,8.77350,0.16723,0.00420,-0.02869
0.02733,1.46151,1.01839,9.63323,0.17874,0.05440,-0.02444,-4.26132,0.91766,8.80606,0.15566,0.02669,0.00441
-0.00019,1.46853,1.01637,9.65364,0.19070,-0.03164,0.00739,-4.25596,0.92623,8.77627,0.22049,0.00173,-0.03367
0.02489,1.45571,1.02814,9.63440,0.21018,0.04163,-0.01123,-4.25397,0.94030,8.77064,0.17848,-0.00037,-0.00445
0.02582,1.44998,1.04689,9.65040,0.18008,0.02078,0.02289,-4.23576,0.92972,8.79708,0.17837,-0.01598,-0.00660
0.03351,1.46236,1.01392,9.64942,0.16440,-0.02733,0.00156,-4.25994,0.91056,8.78638,0.17716,-0.01289,0.00945
-0.01269,1.47515,1.03467,9.63149,0.16905,0.01376,-0.01486,-4.26258,0.94205,8.78184,0.20165,0.01053,-0.01649
0.01571,1.46177,1.03399,9.65154,0.17856,0.01289,-0.00406,-4.27607,0.92684,8.83189,0.17437,0.03356,0.03540
0.03452,1.45666,1.01725,9.64173,0.18357,-0.02293,-0.03908,-4.27225,0.94277,8.78428,0.16226,-0.00483,0.00144
0.04640,1.47083,1.03421,9.62804,0.18301,0.02055,-0.05235,-4.24402,0.93922,8.79019,0.16696,0.02071,0.03103
0.03059,1.46569,1.01315,9.64457,0.18551,0.00010,-0.00483,-4.26725,0.94307,8.81228,0.17183,-0.00263,0.00211
0.05788,1.47072,1.04810,9.66381,0.17833,0.03528,0.00264,-4.25319,0.93759,8.78998,0.17465,-0.04756,-0.00192
0.02967,1.45600,1.02460,9.66776,0.20518,0.02680,-0.01599,-4.27328,0.94466,8.79922,0.13036,0.01331,-0.00411
0.05000,1.45512,1.01160,9.62713,0.16953,0.01714,0.02693,-4.27276,0.94069,8.77738,0.15107,0.02693,-0.01551
0.05193,1.46981,1.04177,9.64262,0.16672,-0.00076,0.02257,-4.26585,0.93351,8.75606,0.18179,0.02930,0.01245
0.03998,1.46723,1.03739,9.68651,0.14499,-0.00419,-0.00913,-4.27304,0.95295,8.76965,0.18330,-0.00426,0.02827
0.02661,1.47741,1.03891,9.66497,0.19548,-0.00880,0.01849,-4.26902,0.94283,8.77201,0.15612,0.03027,0.03085
0.05966,1.44554,1.04330,9.65529,0.19211,0.01362,-0.00330,-4.27084,0.96005,8.79009,0.17969,0.02752,0.01485
0.04475,1.46237,1.04203,9.63739,0.18853,-0.03364,0.00852,-4.26525,0.95196,8.79777,0.19413,-0.00084,0.00027
0.01902,1.47705,1.03348,9.62141,0.16664,0.00946,-0.00047,-4.25827,0.98171,8.78581,0.21046,0.00128,-0.02601
0.04760,1.45222,1.04753,9.66824,0.15430,-0.00675,0.01716,-4.25438,0.95809,8.75982,0.17543,-0.01173,0.00891
0.03459,1.47948,1.04742,9.62967,0.15016,0.01671,-0.00721,-4.27460,0.96937,8.79481,0.19721,0.02803,-0.00869
0.01493,1.46650,1.06305,9.65110,0.18484,0.03179,0.00999,-4.26096,0.96101,8.77491,0.18225,-0.00421,0.01055
-0.00659,1.46321,1.04739,9.65382,0.20050,0.00498,0.01060,-4.25169,0.96913,8.76103,0.14397,-0.00461,-0.00923
0.02947,1.46700,1.06669,9.63823,0.16830,0.02115,-0.00862,-4.26674,0.96947,8.81425,0.17831,-0.01429,-0.00939
0.02347,1.46633,1.06073,9.64377,0.17423,0.03176,0.00994,-4.29260,0.97068,8.76948,0.16115,0.00641,-0.02355
0.06549,1.45693,1.04042,9.63664,0.18697,-0.02373,0.00629,-4.26279,0.96512,8.78726,0.14275,-0.02575,-0.02487
0.02298,1.47547,1.05454,9.63507,0.16115,0.01110,0.01194,-4.27916,0.95306,8.78736,0.17741,0.02166,-0.00399
0.02854,1.45563,1.06053,9.65497,0.19184,-0.01745,-0.01027,-4.26028,0.97344,8.80207,0.13563,-0.01309,0.00512
0.00684,1.47115,1.07250,9.65604,0.18909,-0.01827,-0.01427,-4.23644,0.97016,8.78973,0.15789,-0.04233,0.00118
0.00996,1.47361,1.06750,9.62614,0.18781,-0.01353,0.00049,-4.26536,0.97716,8.77680,0.16843,-0.03350,0.00926
0.04921,1.47924,1.05977,9.65299,0.17931,0.02682,0.03263,-4.26800,0.97649,8.82359,0.17502,0.00468,-0.00003
0.04850,1.45369,1.06200,9.67836,0.14899,0.00530,0.02476,-4.26568,0.96488,8.80432,0.17974,-0.02710,0.00232
0.02253,1.47015,1.07844,9.61233,0.16408,-0.00586,0.03321,-4.27217,0.96706,8.73270,0.19700,0.01882,-0.00685
0.02565,1.46660,1.07434,9.64592,0.17174,-0.00137,-0.03039,-4.27065,0.97312,8.76940,0.17837,0.01263,0.01906
0.05516,1.46757,1.05994,9.64913,0.19538,-0.00141,0.03540,-4.26084,0.97110,8.79803,0.14837,-0.02300,-0.00418
0.01105,1.45788,1.07529,9.61912,0.15674,0.01111,0.00415,-4.26380,0.97467,8.79056,0.18654,0.02144,-0.02812
0.02443,1.47886,1.06411,9.63193,0.21319,0.02841,0.02086,-4.26914,0.96558,8.78022,0.15505,-0.04611,-0.00551
0.00263,1.47266,1.07720,9.66218,0.19008,0.01898,-0.00227,-4.27809,0.99601,8.77763,0.14162,0.02147,0.01630
0.04213,1.48768,1.07487,9.63924,0.18234,-0.01167,0.01898,-4.27958,0.97032,8.74502,0.19823,0.00812,0.02928
0.00844,1.47094,1.09881,9.61836,0.17503,-0.01292,0.00051,-4.26951,0.97871,8.75076,0.19811,-0.00758,-0.01951
0.02280,1.46258,1.07332,9.62319,0.17432,0.00543,0.00995,-4.27405,0.98312,8.77413,0.16312,0.00178,-0.01045
0.04357,1.46244,1.09043,9.62436,0.13418,0.00625,-0.01321,-4.27787,0.97974,8.77858,0.16462,-0.01605,0.00184
0.02778,1.46248,1.10060,9.62044,0.18221,-0.00594,0.00274,-4.27056,0.97566,8.75853,0.15666,0.03701,0.02994
0.05780,1.47325,1.08518,9.61779,0.17565,0.02005,0.04226,-4.25406,0.96244,8.77219,0.15514,0.03003,0.00717
0.01284,1.46261,1.08833,9.67577,0.17051,-0.02509,-0.00370,-4.26298,0.97869,8.79963,0.17265,-0.00159,0.00308
0.00466,1.46120,1.08327,9.64423,0.17310,-0.02634,-0.01606,-4.27412,1.01293,8.75769,0.16402,-0.03045,-0.03228
0.04334,1.46472,1.10305,9.61490,0.14708,0.00692,0.01390,-4.27261,1.01654,8.76190,0.15389,0.01167,0.01242
0.04941,1.44305,1.09865,9.61610,0.18128,0.01498,0.01723,-4.26578,1.00484,8.82181,0.17778,-0.00993,0.02724
0.02985,1.44200,1.10752,9.65316,0.20239,-0.02626,0.00467,-4.24896,0.97936,8.80004,0.18040,0.01342,-0.01653
0.05761,1.45208,1.09373,9.63171,0.18923,-0.01542,0.05122,-4.26148,0.99395,8.76223,0.14855,0.00890,0.01353
0.03932,1.46478,1.09072,9.62460,0.14933,0.03415,0.02500,-4.25898,0.98661,8.77376,0.19508,-0.00262,-0.00413
0.05951,1.47531,1.10812,9.64596,0.19772,-0.01147,-0.04110,-4.27561,1.00450,8.78151,0.16506,0.03217,-0.05156
0.01853,1.45763,1.10721,9.61935,0.21265,0.01983,0.00088,-4.26932,1.00730,8.79480,0.16499,-0.00845,-0.05361
-0.01251,1.47316,1.10244,9.62228,0.18757,-0.04071,-0.02342,-4.27248,1.00863,8.78505,0.19041,0.00226,0.01955
0.03820,1.46801,1.11382,9.60522,0.18504,0.02808,0.01822,-4.28225,1.00909,8.75906,0.16894,0.02772,0.00079
0.02881,1.47324,1.12264,9.63473,0.18719,0.01032,-0.02813,-4.27403,1.00709,8.77661,0.18791,-0.03259,0.03430
0.00544,1.48064,1.10939,9.64170,0.14088,0.01451,0.00472,-4.27276,1.01044,8.80111,0.15349,0.01857,0.01195
0.02894,1.46490,1.12020,9.64905,0.15139,-0.03105,0.04425,-4.25850,1.00056,8.80861,0.15996,0.02733,-0.00194
0.07527,1.45683,1.11785,9.62449,0.13528,0.01920,0.01468,-4.27448,1.00932,8.79070,0.20688,0.02260,-0.00501
0.03215,1.46993,1.10299,9.66948,0.17504,0.00544,-0.01741,-4.25921,1.02396,8.73001,0.18702,0.03268,-0.00289
0.01743,1.47161,1.12649,9.63051,0.15073,-0.01459,-0.00019,-4.26520,1.01311,8.75363,0.19138,-0.02285,0.02788
-0.00088,1.48434,1.12401,9.60359,0.14382,0.04495,0.02500,-4.26435,1.02988,8.78857,0.12690,0.01986,-0.00899
0.00640,1.46714,1.11145,9.64237,0.16936,-0.00653,-0.00289,-4.27739,1.02398,8.77548,0.15733,0.00090,-0.02958
0.00807,1.46454,1.12787,9.66166,0.16800,-0.01366,-0.01644,-4.26894,1.02084,8.81936,0.16715,-0.01970,0.03915
0.03841,1.45594,1.11820,9.60050,0.17623,0.01818,0.03581,-4.26174,1.02255,8.75833,0.18508,0.02308,0.03393
0.04763,1.47042,1.13236,9.61850,0.17946,0.01033,0.00219,-4.24831,1.03093,8.78959,0.15456,0.05130,-0.05374
0.03694,1.47457,1.13208,9.61325,0.18069,-0.02730,0.00101,-4.27457,1.01775,8.75284,0.17488,-0.02042,-0.00607
0.02419,1.46187,1.13624,9.67206,0.17826,0.00806,0.00111,-4.26606,1.01644,8.74955,0.16093,0.03131,0.01827
0.05114,1.46607,1.14698,9.61490,0.19786,0.03219,-0.00577,-4.27773,1.01200,8.76818,0.18698,0.00421,-0.00527
0.05331,1.46587,1.12428,9.62824,0.18895,-0.01066,-0.01119,-4.28049,1.02946,8.77255,0.14177,0.00270,0.02468
0.04353,1.47174,1.12320,9.64119,0.13555,0.00559,0.01783,-4.27330,1.03269,8.78304,0.15827,0.00535,-0.01390
0.04522,1.45647,1.11585,9.59671,0.20450,-0.01629,0.00592,-4.25367,1.03677,8.81015,0.14962,-0.02891,-0.02256
-0.01150,1.46644,1.13065,9.64439,0.17009,0.01440,-0.00519,-4.25549,1.02804,8.79554,0.18609,-0.01771,-0.01481
0.04361,1.48247,1.14081,9.63411,0.19326,-0.01990,0.01096,-4.24698,1.03946,8.81213,0.17910,-0.01647,0.00889
0.01168,1.46824,1.14703,9.64187,0.15997,0.00246,0.00118,-4.27046,1.02282,8.75362,0.16956,-0.00484,0.01944
0.01252,1.45944,1.14802,9.61759,0.17276,-0.00394,0.01513,-4.26596,1.06790,8.78113,0.14563,-0.01329,0.00702
0.07790,1.45567,1.14999,9.64730,0.20140,-0.00286,0.02571,-4.27457,1.06594,8.77611,0.17299,0.00483,0.03268
0.01701,1.46433,1.12632,9.60326,0.15623,-0.01351,0.01598,-4.25355,1.04962,8.75051,0.15831,-0.00342,-0.03772
0.05273,1.46839,1.15523,9.61644,0.17305,-0.02180,0.01830,-4.27138,1.05824,8.78646,0.15252,0.00389,0.02394
0.05027,1.45116,1.14691,9.62742,0.19500,-0.01749,-0.01013,-4.27719,1.03123,8.74036,0.20100,-0.00093,-0.00345
0.03982,1.47354,1.16277,9.62781,0.20161,0.00302,0.02899,-4.26043,1.04231,8.74187,0.18573,0.00029,-0.00662
0.01978,1.47134,1.14441,9.64717,0.14737,-0.01499,-0.01464,-4.26381,1.04654,8.77797,0.17558,0.01750,-0.01735
0.02014,1.47399,1.15761,9.62084,0.16569,-0.00470,-0.03148,-4.26231,1.04581,8.78392,0.16785,0.01617,0.00894
0.04248,1.46562,1.15641,9.66337,0.14848,0.01603,0.02770,-4.26465,1.04027,8.77345,0.19156,0.03870,0.02194
0.03607,1.45578,1.14887,9.66803,0.15595,0.00033,0.01512,-4.24171,1.05647,8.76650,0.17171,-0.00235,-0.01190
0.03829,1.47578,1.15440,9.61520,0.20627,-0.02867,0.03985,-4.25111,1.04771,8.76222,0.18198,0.01855,0.01719
0.05077,1.45332,1.17188,9.63962,0.15905,0.03936,0.00215,-4.27084,1.07283,8.83189,0.19058,-0.00233,0.01356
0.00842,1.47452,1.16839,9.63070,0.16028,-0.04644,-0.01131,-4.26123,1.06158,8.72115,0.16270,0.03535,0.02297
0.03101,1.43479,1.16649,9.62808,0.17172,0.01970,-0.00179,-4.25144,1.06518,8.76828,0.18074,-0.00476,-0.01495
0.01681,1.48097,1.14137,9.65161,0.14127,-0.00084,-0.00922,-4.25900,1.06394,8.75658,0.17496,0.00719,0.00461
0.04960,1.46997,1.15918,9.65436,0.14739,0.02958,0.01680,-4.26961,1.06546,8.77099,0.17163,0.00269,-0.00800
0.03948,1.47686,1.15935,9.64487,0.15935,-0.01283,-0.01115,-4.26602,1.05488,8.73725,0.19374,-0.03029,0.01376
0.04113,1.46534,1.17298,9.59686,0.18335,0.02446,0.02982,-4.24867,1.07356,8.74789,0.16889,0.00566,-0.00289
0.04130,1.46551,1.16661,9.62065,0.17706,-0.00668,-0.01847,-4.27671,1.05479,8.77456,0.17635,0.00090,-0.03829
0.02556,1.46511,1.17015,9.61946,0.17118,-0.02032,0.02352,-4.25254,1.07325,8.76336,0.20400,0.01832,-0.01759
0.04255,1.46980,1.15595,9.61065,0.16422,0.01492,0.01949,-4.27496,1.06103,8.77802,0.14251,-0.00008,-0.00299
0.05507,1.47974,1.16050,9.59331,0.15679,-0.01733,0.00160,-4.27965,1.05616,8.77674,0.17507,0.00417,0.02850
0.03510,1.46500,1.18694,9.61757,0.17274,0.00865,-0.02399,-4.26182,1.07059,8.75821,0.18586,0.01239,0.02927
0.00572,1.45526,1.19235,9.61492,0.16921,-0.01088,-0.01630,-4.27588,1.08391,8.76979,0.17111,0.00469,0.00969
-0.01363,1.45777,1.18582,9.62056,0.19385,-0.03445,0.01092,-4.27184,1.06290,8.75041,0.19896,0.04002,0.00590
0.06013,1.46367,1.17803,9.64491,0.16701,-0.01250,0.01650,-4.26150,1.07067,8.75406,0.17696,-0.01328,-0.02294
0.03391,1.44671,1.19176,9.60945,0.19740,0.02340,-0.01458,-4.26513,1.07526,8.72846,0.20449,-0.00907,0.00523
0.04521,1.46419,1.19003,9.63182,0.17017,-0.01298,-0.03336,-4.25177,1.06696,8.77010,0.16103,-0.01877,0.02472
0.01088,1.46640,1.18962,9.61070,0.20169,-0.00487,-0.03913,-4.28473,1.07937,8.77001,0.13981,-0.04562,-0.01810
0.02257,1.47845,1.18965,9.61113,0.18369,-0.03022,0.01405,-4.26896,1.07129,8.77609,0.13680,-0.02186,0.01977
0.01602,1.47808,1.19561,9.62505,0.16163,-0.00290,-0.02314,-4.26428,1.07755,8.74245,0.17032,0.00970,-0.02253
0.04722,1.45825,1.19066,9.61569,0.18669,-0.01212,-0.01524,-4.27963,1.07575,8.73159,0.19545,0.03657,-0.00888
-0.00429,1.47137,1.19895,9.62641,0.18553,-0.02203,0.00924,-4.27383,1.09808,8.75197,0.21741,-0.03848,0.02040
0.00670,1.46578,1.18897,9.63629,0.15011,-0.00729,-0.00191,-4.25895,1.08329,8.78924,0.16764,0.00701,-0.00836
0.05358,1.46195,1.20601,9.62976,0.15432,-0.03137,-0.03279,-4.27059,1.07975,8.74428,0.16657,-0.00864,0.05151
-0.01794,1.44593,1.18367,9.65289,0.19073,-0.00918,-0.00450,-4.26248,1.09221,8.75558,0.15439,-0.01565,-0.00064
0.04762,1.46060,1.20796,9.62901,0.13710,-0.03839,0.01638,-4.27526,1.08683,8.75343,0.16305,-0.00757,-0.04360
0.03437,1.46342,1.19634,9.62465,0.18181,-0.01728,0.00199,-4.26443,1.09576,8.74744,0.14335,0.00440,0.00759
0.03314,1.46359,1.21662,9.62426,0.15446,-0.00630,-0.01033,-4.27635,1.10538,8.74296,0.16152,-0.00074,0.02917
0.04108,1.47303,1.20340,9.62438,0.18497,0.00069,0.02144,-4.27382,1.11594,8.78200,0.18624,-0.01562,0.00179
0.06635,1.45256,1.21738,9.63898,0.18266,-0.00146,0.02072,-4.25955,1.10053,8.77597,0.18790,-0.01609,-0.01419
0.07458,1.45819,1.19658,9.64196,0.16510,0.00017,-0.00675,-4.26111,1.11873,8.74674,0.16348,0.02488,0.02397
0.05542,1.46999,1.20260,9.59758,0.18093,-0.01477,-0.03289,-4.26895,1.10501,8.80513,0.16646,0.05026,-0.01659
0.05366,1.45427,1.20553,9.60252,0.19049,-0.02295,-0.03908,-4.26120,1.10017,8.76147,0.17817,0.01066,-0.00295
0.07382,1.45413,1.21593,9.61873,0.19071,-0.02585,0.00916,-4.25770,1.08939,8.76790,0.16398,0.00502,-0.02522
0.05127,1.47296,1.20658,9.62861,0.19488,0.01088,-0.00640,-4.27481,1.11096,8.73750,0.17808,0.01170,0.03611
0.05994,1.47338,1.23272,9.62463,0.14704,-0.01821,-0.02320,-4.27766,1.11042,8.74563,0.17896,-0.01801,0.03874
0.01848,1.47248,1.20821,9.60410,0.16370,-0.02757,-0.01979,-4.24001,1.10003,8.77269,0.15299,0.00084,-0.02179
0.05725,1.46315,1.20223,9.62001,0.19844,0.01848,-0.01386,-4.25248,1.10672,8.76021,0.18036,0.00659,0.02602
0.05852,1.46544,1.24135,9.65363,0.15716,-0.01747,0.02155,-4.28023,1.10741,8.75265,0.15181,-0.03160,-0.01662
0.00359,1.47711,1.24529,9.59919,0.17559,-0.00762,0.00544,-4.27496,1.12686,8.76004,0.14796,0.02042,0.01392
0.03151,1.47092,1.22286,9.61220,0.18677,-0.01904,0.01814,-4.26894,1.13345,8.76639,0.17086,-0.03511,0.01195
0.01320,1.47071,1.21919,9.59275,0.17054,-0.00951,0.00669,-4.25715,1.11042,8.78604,0.15562,0.00970,0.00883
0.02747,1.48188,1.23236,9.59392,0.15491,0.00582,-0.01486,-4.26535,1.13123,8.69815,0.14094,0.01083,-0.00157
0.09068,1.44782,1.23195,9.62789,0.15717,-0.00647,0.02465,-4.26996,1.10808,8.78615,0.16993,0.00980,0.04625
0.02676,1.46325,1.22603,9.62436,0.17485,-0.00822,0.01633,-4.26267,1.11584,8.73543,0.17981,0.00230,-0.00009
-0.01866,1.46799,1.22632,9.64551,0.17585,-0.00382,-0.01193,-4.27555,1.12219,8.79697,0.19560,0.01851,0.02764
0.03140,1.45917,1.21878,9.60995,0.15192,-0.01109,-0.00828,-4.27537,1.12865,8.78145,0.18974,-0.00002,-0.00864
0.01416,1.45630,1.24363,9.61037,0.17354,-0.01541,-0.00379,-4.26105,1.13029,8.77287,0.13535,0.00057,-0.02752
0.02732,1.47862,1.24621,9.61124,0.15328,0.00081,-0.01601,-4.27402,1.14167,8.72459,0.15819,0.02908,-0.00295
0.01759,1.48433,1.22426,9.61438,0.22151,0.01137,0.03222,-4.25238,1.12727,8.73809,0.13240,-0.00665,-0.01277
-0.00064,1.45204,1.23684,9.61568,0.18120,-0.02144,0.01808,-4.26848,1.14534,8.75121,0.17296,0.03224,0.01772
-0.00872,1.46769,1.23858,9.58583,0.16892,-0.03651,0.03007,-4.25251,1.14378,8.73691,0.12604,0.00349,-0.01154
0.01325,1.45861,1.25073,9.63594,0.19380,-0.01231,0.00621,-4.27920,1.13616,8.74969,0.15642,0.02407,-0.01895
0.08924,1.45852,1.24945,9.60593,0.15610,-0.00967,0.01000,-4.28007,1.14880,8.75151,0.21488,0.00700,0.00575
0.00002,1.46206,1.25632,9.60884,0.18034,0.04394,0.01991,-4.24294,1.13505,8.74957,0.18036,0.03596,-0.00570
0.02558,1.44289,1.25877,9.60366,0.17744,0.02813,0.02036,-4.26917,1.15020,8.77686,0.17961,0.00316,0.00356
0.00937,1.45963,1.25236,9.63445,0.17850,0.00332,0.00486,-4.26143,1.14282,8.77863,0.17806,0.02245,0.01448
0.00987,1.46856,1.25197,9.56319,0.14271,-0.01214,-0.01951,-4.25728,1.14955,8.76240,0.15081,-0.00116,-0.01930
0.01219,1.45339,1.26479,9.62660,0.19269,-0.00607,0.02426,-4.26375,1.14882,8.74257,0.18605,0.00515,-0.03668
0.02144,1.46878,1.27544,9.63838,0.20276,-0.02016,-0.02940,-4.26746,1.15523,8.75091,0.19536,0.00476,0.00275
0.03076,1.45935,1.25444,9.59986,0.20019,-0.01878,-0.04703,-4.27792,1.14294,8.72600,0.16103,-0.01142,0.02501
0.07181,1.46224,1.24725,9.61342,0.16046,0.03620,0.01680,-4.27129,1.14596,8.73849,0.18493,-0.01962,-0.01072
0.01362,1.47092,1.25811,9.63051,0.14654,-0.01651,-0.00875,-4.26375,1.16653,8.72332,0.16841,0.00096,0.00962
0.05570,1.46652,1.25082,9.59812,0.16851,-0.00048,0.00286,-4.25186,1.13337,8.76204,0.20392,-0.00979,0.01068
0.02110,1.48045,1.26208,9.61125,0.15137,0.01190,0.01336,-4.27287,1.15953,8.76668,0.18662,-0.00956,0.00618
0.05535,1.47187,1.26768,9.62219,0.17265,0.00306,-0.00804,-4.26067,1.14958,8.77306,0.17890,-0.02829,-0.00236
0.03336,1.46536,1.27169,9.65228,0.18383,-0.01674,-0.02328,-4.26648,1.16470,8.73329,0.17610,0.01721,-0.04365
0.04171,1.46425,1.27495,9.64251,0.15292,0.00884,0.00027,-4.27673,1.16435,8.76058,0.19770,-0.01654,-0.00599
0.01055,1.47110,1.27202,9.59416,0.18044,-0.01920,0.01421,-4.27500,1.16721,8.76452,0.17229,0.01749,0.03689
0.03201,1.46933,1.26273,9.59051,0.14058,0.01571,-0.02384,-4.27425,1.16076,8.75870,0.18177,-0.01829,-0.01008
0.03708,1.45709,1.27523,9.59217,0.23341,-0.00808,-0.01869,-4.25235,1.15837,8.77214,0.16354,-0.00124,-0.01340
0.06654,1.47217,1.25824,9.55628,0.15354,-0.02989,0.02568,-4.26366,1.15755,8.78204,0.17784,0.02447,-0.03427
-0.01105,1.45590,1.28148,9.59573,0.17631,0.00641,-0.06290,-4.26386,1.15551,8.75929,0.15352,0.00516,-0.00089
0.00804,1.44836,1.27844,9.62652,0.18534,-0.01485,-0.00776,-4.27957,1.18583,8.74188,0.13868,-0.02402,-0.01320
0.01304,1.45473,1.27532,9.63173,0.17990,-0.01629,-0.02277,-4.27425,1.18880,8.73267,0.16503,-0.02005,0.00210
0.03774,1.46348,1.28222,9.61700,0.14759,-0.02056,0.00804,-4.27626,1.16200,8.75636,0.15555,-0.03429,-0.01484
0.02315,1.47707,1.29131,9.64466,0.17024,-0.02164,-0.00407,-4.27072,1.18580,8.74441,0.17927,-0.00075,-0.01967
0.01369,1.46871,1.27639,9.64266,0.16297,0.00662,0.01168,-4.26528,1.18644,8.75645,0.16255,0.01724,0.02168
0.04260,1.47575,1.29215,9.57828,0.19810,-0.02426,0.01860,-4.26991,1.18053,8.75372,0.17548,0.04415,-0.01477
0.02982,1.45926,1.29994,9.58675,0.19072,-0.00708,-0.00506,-4.27446,1.17403,8.75362,0.16272,0.00879,-0.03878
-0.01387,1.46235,1.28476,9.63463,0.17223,-0.01793,0.04007,-4.25114,1.16428,8.72973,0.16604,-0.00036,0.00928
0.04041,1.47718,1.30684,9.58904,0.21719,-0.05352,0.03387,-4.25764,1.17551,8.76175,0.14707,0.03125,-0.03794
0.01739,1.45771,1.28234,9.63128,0.19962,0.00836,0.01159,-4.26886,1.17876,8.76229,0.12594,0.00526,0.04393
0.07117,1.44198,1.28644,9.65635,0.14565,0.00473,-0.02907,-4.27796,1.17741,8.73145,0.16515,0.02119,-0.01171
0.02344,1.46218,1.30335,9.57834,0.13604,-0.01468,0.01702,-4.25065,1.16707,8.75883,0.15544,0.01059,-0.01311
0.04427,1.45451,1.29613,9.60855,0.16928,0.00512,0.00275,-4.27554,1.18170,8.74924,0.15810,0.02997,0.00402
0.03597,1.46528,1.29890,9.58937,0.15424,0.04635,0.01466,-4.26374,1.17920,8.75371,0.17348,-0.00564,0.01073
0.01580,1.47217,1.29624,9.60976,0.13373,-0.01256,0.01608,-4.27161,1.17625,8.74737,0.20533,0.00404,0.03171
-0.01667,1.46231,1.30079,9.63593,0.18039,-0.00485,0.05219,-4.26481,1.17594,8.75206,0.19336,-0.01764,0.00522
0.05852,1.45005,1.31366,9.62347,0.15474,0.01144,-0.00160,-4.25937,1.19769,8.74968,0.19769,-0.01708,0.02610
0.02494,1.46709,1.31189,9.61395,0.14332,0.01132,0.01316,-4.27643,1.19988,8.77326,0.15294,0.02103,0.03722
0.03077,1.46446,1.29973,9.61342,0.19941,0.02147,-0.00416,-4.25910,1.19220,8.74462,0.15763,-0.01805,0.00267
0.03531,1.46105,1.32434,9.60468,0.15595,0.01272,0.01499,-4.25953,1.19679,8.77881,0.15291,0.00565,0.00202
0.04203,1.45414,1.33242,9.59781,0.20559,0.05137,-0.00164,-4.25976,1.19065,8.76613,0.13338,-0.01019,-0.00584
-0.00050,1.45882,1.29903,9.60181,0.18084,0.02616,0.05012,-4.27473,1.21030,8.73556,0.17218,0.04522,-0.03233
0.04357,1.47168,1.31018,9.61640,0.18397,-0.01257,-0.01333,-4.27414,1.21798,8.73987,0.16661,0.01919,-0.00310
0.01862,1.47469,1.31493,9.59339,0.19959,-0.02474,-0.02278,-4.28220,1.18952,8.73457,0.16914,-0.01428,0.02598
0.02162,1.47395,1.32662,9.64328,0.12953,-0.02238,-0.02281,-4.26827,1.20027,8.77976,0.18038,-0.02267,0.00244
0.03360,1.45896,1.31123,9.56003,0.17306,-0.00899,-0.00085,-4.26125,1.21240,8.75544,0.16252,-0.00387,0.00209
-0.00869,1.47907,1.29812,9.63504,0.15205,0.00887,0.01194,-4.26240,1.20209,8.71512,0.17700,-0.03497,0.02677
0.04004,1.46377,1.30760,9.59382,0.18829,-0.01957,-0.01028,-4.26772,1.19978,8.74170,0.19500,-0.00363,0.01590
0.03754,1.47275,1.33628,9.58427,0.13890,0.02809,-0.00668,-4.27162,1.21603,8.72406,0.18329,0.00834,-0.03474
-0.00656,1.48190,1.33272,9.61020,0.12753,0.01849,-0.00116,-4.27818,1.21004,8.73041,0.19948,0.00212,0.01599
0.05239,1.46186,1.31469,9.57344,0.18346,-0.03330,0.02215,-4.27220,1.20296,8.72806,0.17454,0.01710,-0.02619
0.02098,1.46323,1.33538,9.60232,0.16773,0.02023,-0.01112,-4.26676,1.21012,8.74314,0.12283,0.02007,0.00594
0.01750,1.45983,1.32559,9.61110,0.19346,-0.01374,-0.00842,-4.25707,1.19953,8.73089,0.13219,0.00782,-0.02955
-0.00995,1.46898,1.32976,9.61926,0.18488,-0.03308,0.01152,-4.26290,1.22541,8.75239,0.16486,0.01490,0.02419
-0.00150,1.47644,1.33379,9.61766,0.17485,-0.00608,0.02190,-4.26732,1.22967,8.73672,0.16425,0.00491,-0.01062
0.01213,1.47325,1.33916,9.61012,0.16743,0.01064,0.00395,-4.26565,1.21452,8.73071,0.15199,0.01939,-0.03610
0.04399,1.46233,1.37257,9.61799,0.17098,0.02921,-0.02256,-4.27798,1.19688,8.74293,0.17205,-0.00970,-0.00648
0.04595,1.46181,1.34152,9.64261,0.18973,0.00512,-0.02643,-4.26842,1.23029,8.71793,0.16271,-0.04143,0.01523
0.02671,1.46487,1.33262,9.65162,0.15593,0.02732,-0.00448,-4.26361,1.21793,8.73445,0.13022,-0.00917,0.02155
0.03800,1.46157,1.34583,9.65659,0.15993,-0.00782,-0.00260,-4.25961,1.22850,8.73041,0.16677,-0.01073,0.01785
0.01727,1.45437,1.32677,9.60312,0.15266,0.02760,0.02992,-4.25631,1.22433,8.75335,0.16964,0.00987,0.01430
0.00452,1.47798,1.34081,9.58786,0.12842,0.01378,-0.01050,-4.25273,1.22205,8.72831,0.18726,-0.01234,-0.00081
-0.00852,1.47319,1.35146,9.60666,0.13447,0.01903,-0.02633,-4.27634,1.22043,8.72423,0.16496,0.02190,0.01553
0.02910,1.44573,1.34370,9.58912,0.16795,0.02431,-0.01993,-4.26048,1.22439,8.71612,0.19820,0.01948,-0.01262
0.04953,1.48003,1.35016,9.59491,0.15022,0.03370,-0.00143,-4.27277,1.22878,8.72316,0.17010,0.04869,0.00369
0.03710,1.46648,1.34418,9.58569,0.14453,-0.04249,-0.00291,-4.26141,1.23398,8.76000,0.16346,0.00182,-0.03208
0.03317,1.47814,1.35621,9.62413,0.17294,-0.03894,0.01445,-4.26616,1.21982,8.76612,0.16535,-0.01162,-0.01433
0.00388,1.46289,1.36162,9.59488,0.14108,0.00310,0.01832,-4.27039,1.22414,8.74473,0.13862,0.02891,-0.01217
0.03785,1.45765,1.36143,9.63296,0.17499,0.01049,-0.03559,-4.26475,1.24416,8.75423,0.16274,0.02673,0.00847
0.01861,1.46301,1.35777,9.59364,0.11641,-0.00932,-0.03037,-4.25969,1.24127,8.77972,0.15995,-0.02197,0.00152
0.04801,1.45323,1.36078,9.63114,0.18849,0.00510,-0.00807,-4.26938,1.25006,8.76832,0.19866,0.01833,0.02320
-0.00694,1.47905,1.36084,9.60750,0.18356,0.00650,-0.00426,-4.26836,1.25626,8.74458,0.15304,-0.02294,-0.01300
0.03612,1.45697,1.37001,9.58089,0.16347,-0.00333,0.00842,-4.26553,1.24833,8.75007,0.15071,-0.03395,-0.00563
0.02478,1.46675,1.36615,9.61484,0.14980,0.04400,0.02318,-4.26804,1.25119,8.74280,0.14238,0.00989,0.02004
0.03980,1.45752,1.37191,9.57970,0.16452,0.00313,0.00862,-4.27468,1.23869,8.75236,0.17547,0.00495,-0.02784
0.02431,1.47254,1.38299,9.63384,0.16178,0.01878,-0.00089,-4.27796,1.26045,8.70461,0.16947,0.00743,-0.01751
0.03520,1.46423,1.39255,9.60975,0.15646,0.02680,-0.03155,-4.26323,1.24788,8.73996,0.16959,-0.00953,-0.00259
0.00006,1.46047,1.35534,9.59109,0.13862,0.00244,-0.01696,-4.27193,1.25049,8.75244,0.17876,0.01539,-0.01121
0.06208,1.47131,1.36654,9.60843,0.17532,0.00472,-0.01477,-4.27416,1.24791,8.72521,0.16058,-0.00242,-0.01477
0.01242,1.46799,1.39788,9.61429,0.18719,-0.03453,0.00433,-4.26832,1.26062,8.76889,0.14118,-0.02687,0.03088
0.01617,1.46611,1.38940,9.61014,0.16628,-0.00397,0.04604,-4.26221,1.23365,8.71393,0.15228,0.01785,-0.03208
0.01481,1.45518,1.38352,9.58548,0.15108,-0.02263,0.02460,-4.27740,1.24418,8.75749,0.16869,-0.01630,0.01384
0.01461,1.47998,1.38881,9.59159,0.16488,0.02464,-0.03061,-4.27279,1.24987,8.76095,0.16005,0.02676,0.01604
0.00547,1.45780,1.38055,9.60032,0.16365,0.00519,-0.00067,-4.26661,1.25717,8.70794,0.18083,-0.04047,-0.01604
0.04438,1.45930,1.38448,9.61010,0.16700,0.00681,-0.01740,-4.26028,1.25495,8.69545,0.17365,0.01026,0.01459
0.01564,1.45563,1.37672,9.60496,0.17246,0.03892,0.01451,-4.27002,1.25094,8.72513,0.18714,-0.01161,0.04780
0.02352,1.47164,1.39037,9.59931,0.09189,-0.00311,0.01244,-4.28462,1.24333,8.77694,0.18190,0.01205,0.00129
0.02387,1.46820,1.40069,9.61160,0.18778,0.00653,0.01408,-4.26940,1.26247,8.73756,0.18991,0.00414,-0.01493
0.03722,1.47329,1.39401,9.58411,0.17754,-0.00171,0.00691,-4.28986,1.27390,8.72045,0.18139,0.01395,-0.01364
0.01316,1.45990,1.38963,9.61475,0.16827,0.00132,-0.01202,-4.27525,1.28981,8.77912,0.18486,-0.01047,-0.03282
0.03491,1.48217,1.38695,9.60342,0.18791,-0.01539,-0.00774,-4.26483,1.27423,8.74740,0.16504,-0.00954,-0.00168
0.01713,1.47062,1.39489,9.56145,0.18145,-0.00074,0.04467,-4.26367,1.26838,8.75828,0.19961,-0.01239,-0.01351
0.05155,1.46702,1.40264,9.59002,0.15080,-0.01879,-0.00808,-4.26977,1.26204,8.75491,0.15997,0.02278,-0.00206
0.72128,1.44698,1.38319,9.63291,0.18921,0.42642,-0.01154,-4.24213,1.26754,8.73989,0.12604,-1.23992,0.00438
0.38626,1.45653,1.38741,9.60696,0.15238,0.46261,-0.00049,-4.25357,1.27161,8.71147,0.18458,-1.19978,0.02314
0.74559,1.45008,1.40016,9.57457,0.15085,0.46717,0.03316,-4.25589,1.27786,8.78383,0.18460,-1.21472,-0.01676
0.36971,1.43935,1.37286,9.61607,0.16096,0.44910,0.00982,-4.22264,1.25724,8.72438,0.19492,-1.20651,0.00807
0.66819,1.45636,1.40886,9.58114,0.19410,0.47385,0.00782,-4.21051,1.29693,8.77022,0.14150,-1.20004,0.01765
0.45008,1.43778,1.41196,9.57569,0.14802,0.43452,0.00298,-4.21161,1.31017,8.75868,0.14991,-1.14142,0.00125
0.66192,1.45037,1.38825,9.60770,0.18514,0.45651,-0.03921,-4.17815,1.28102,8.76916,0.15294,-1.15408,0.00402
0.30894,1.44024,1.40427,9.60812,0.16688,0.48480,0.02436,-4.17667,1.27467,8.77952,0.15647,-1.17866,0.00694
0.33101,1.42382,1.41013,9.61783,0.16848,0.41161,-0.01091,-4.17300,1.29647,8.79175,0.19616,-1.16197,-0.02910
0.41373,1.43189,1.40041,9.58447,0.18309,0.46665,0.00956,-4.14110,1.28563,8.80541,0.12927,-1.18110,0.00182
0.87331,1.42216,1.41345,9.61366,0.14318,0.39373,-0.02750,-4.14882,1.28745,8.77846,0.18007,-1.17554,-0.00852
0.68257,1.41715,1.41828,9.62887,0.16320,0.43835,-0.00284,-4.14052,1.30077,8.79502,0.14465,-1.16632,0.02227
0.30067,1.39049,1.41760,9.60890,0.17029,0.44854,0.02093,-4.12178,1.29071,8.78928,0.18098,-1.11648,-0.00572
0.80387,1.40444,1.41956,9.60503,0.17874,0.42614,-0.00350,-4.12738,1.29791,8.81475,0.18104,-1.14813,-0.02399
0.81789,1.39423,1.41609,9.60747,0.14454,0.44999,-0.01506,-4.10877,1.31051,8.79002,0.17121,-1.16049,0.00497
0.68073,1.39823,1.41449,9.59868,0.14957,0.46508,-0.00863,-4.10063,1.29473,8.80862,0.14041,-1.18764,-0.00186
0.86150,1.40138,1.42439,9.61163,0.16300,0.45611,-0.01745,-4.09132,1.30323,8.82026,0.14861,-1.11677,-0.02442
0.70022,1.39222,1.40378,9.60208,0.15277,0.40491,0.00265,-4.08480,1.30568,8.81901,0.17136,-1.12198,0.02580
0.44857,1.38987,1.43226,9.62424,0.20358,0.39215,-0.00337,-4.06862,1.31711,8.84304,0.15697,-1.11314,0.02789
0.50800,1.37159,1.42004,9.57242,0.16633,0.41558,-0.05216,-4.05790,1.30753,8.85994,0.11614,-1.12293,-0.01392
0.48134,1.37131,1.44021,9.63230,0.16303,0.43214,0.02758,-4.04380,1.34158,8.83367,0.15055,-1.12619,-0.01117
0.51112,1.38362,1.42926,9.59882,0.16792,0.40567,0.01913,-4.04037,1.31222,8.85126,0.19845,-1.14488,-0.00506
0.92135,1.37363,1.42973,9.58268,0.17162,0.43441,-0.00712,-4.03376,1.29525,8.85693,0.17041,-1.13366,0.03214
0.73657,1.35802,1.43458,9.61816,0.18291,0.40806,-0.05527,-4.01893,1.31406,8.84303,0.17424,-1.12214,0.00040
0.68452,1.35016,1.44446,9.62545,0.16746,0.41204,-0.00490,-4.01496,1.31640,8.84084,0.18530,-1.13474,-0.00539
0.74919,1.35237,1.44676,9.60703,0.16013,0.45752,-0.01110,-3.99478,1.32754,8.85066,0.18721,-1.11356,0.01050
0.57182,1.36607,1.45085,9.61063,0.17446,0.41592,0.00033,-3.98688,1.32833,8.83850,0.20704,-1.10906,-0.01466
0.79976,1.34425,1.43702,9.57432,0.17335,0.36478,-0.02528,-3.97914,1.32526,8.87194,0.16232,-1.13831,-0.02505
0.72946,1.35477,1.45230,9.59717,0.14436,0.43054,-0.00247,-3.97831,1.33302,8.91082,0.16316,-1.08703,-0.00082
0.58157,1.33326,1.44850,9.60503,0.16464,0.39660,-0.00478,-3.96123,1.32234,8.90155,0.18250,-1.08295,0.01149
0.42108,1.33013,1.44750,9.61168,0.16963,0.41774,-0.01104,-3.94336,1.35068,8.88258,0.17300,-1.12252,0.02054
0.73566,1.33321,1.44369,9.62673,0.13653,0.38844,0.02223,-3.94209,1.33410,8.89030,0.13897,-1.07069,0.00703
0.65770,1.32707,1.44558,9.59976,0.19225,0.39315,0.03744,-3.93601,1.33000,8.94870,0.17169,-1.07379,0.00913
0.50880,1.32512,1.44781,9.64085,0.14560,0.41470,-0.01601,-3.92821,1.32587,8.86115,0.17048,-1.09855,-0.00402
0.34309,1.32597,1.45179,9.61063,0.16439,0.42159,0.03509,-3.91507,1.32794,8.88800,0.19695,-1.08199,-0.03744
0.56599,1.32259,1.43680,9.59597,0.20322,0.43210,0.05567,-3.89662,1.37217,8.88492,0.19022,-1.08926,0.03112
0.66521,1.32079,1.46046,9.58717,0.14279,0.41148,-0.04613,-3.90826,1.36242,8.91929,0.17637,-1.13584,0.00418
0.71159,1.30942,1.44742,9.63352,0.15921,0.40263,0.03414,-3.88368,1.34774,8.88792,0.17927,-1.03521,-0.00514
0.84098,1.29548,1.47658,9.62069,0.18416,0.38111,0.01234,-3.87369,1.35485,8.89794,0.15619,-1.09655,-0.00178
0.61017,1.29954,1.47246,9.61270,0.15238,0.37401,-0.00125,-3.87645,1.35439,8.91937,0.19310,-1.05305,-0.00776
0.83952,1.28058,1.46197,9.58722,0.16361,0.37621,0.02882,-3.86595,1.36117,8.92560,0.17772,-1.07402,-0.00496
0.77379,1.29729,1.45961,9.59861,0.13306,0.42000,-0.02031,-3.83934,1.35617,8.90364,0.18428,-1.02369,-0.01383
0.59787,1.28905,1.46796,9.59833,0.16524,0.42271,-0.01184,-3.82940,1.35694,8.88510,0.16456,-1.05764,0.00214
0.69581,1.30489,1.46608,9.64114,0.15243,0.39076,0.01540,-3.84531,1.36908,8.90850,0.12869,-1.05811,0.00900
0.85260,1.28567,1.47793,9.58507,0.18149,0.41578,0.01465,-3.81857,1.36803,8.96800,0.19334,-1.10697,0.01542
0.87462,1.27714,1.46423,9.57502,0.14101,0.40005,0.02660,-3.81215,1.38051,8.93138,0.13746,-1.01376,0.01222
0.70339,1.26945,1.46473,9.61398,0.14833,0.39125,-0.00843,-3.80388,1.36124,8.91055,0.18299,-1.03514,-0.01360
0.92929,1.26518,1.46465,9.62813,0.15864,0.41979,-0.00072,-3.77411,1.38108,8.89602,0.17311,-1.00451,0.02509
0.69230,1.28023,1.47623,9.61404,0.14839,0.38887,-0.00981,-3.78001,1.37946,8.97860,0.16096,-1.03585,0.01690
0.64111,1.24943,1.49926,9.59843,0.19188,0.38644,-0.01412,-3.76537,1.35092,8.97983,0.14937,-1.04603,0.00824
0.56356,1.27270,1.47750,9.62444,0.15394,0.37910,-0.00551,-3.76027,1.38177,8.96407,0.15969,-1.00964,-0.00925
0.53207,1.26251,1.48314,9.60397,0.17721,0.36611,-0.05529,-3.72173,1.38784,8.97965,0.16693,-1.03721,0.00145
0.53377,1.27337,1.48665,9.59131,0.17308,0.35078,0.00905,-3.73598,1.37532,8.95842,0.15754,-1.03398,-0.01509
0.72237,1.25201,1.46610,9.60663,0.18122,0.34774,0.02440,-3.72772,1.38951,8.99542,0.15818,-1.03907,-0.02352
0.51286,1.25400,1.48392,9.60238,0.17743,0.38303,-0.02495,-3.70790,1.38175,8.98547,0.17642,-1.00571,-0.00582
0.57949,1.22789,1.48911,9.62237,0.14561,0.38539,-0.01399,-3.70530,1.39639,8.99991,0.15970,-1.02982,-0.00923
0.81771,1.23926,1.48334,9.58198,0.14615,0.39172,-0.01970,-3.71846,1.40654,9.01679,0.18172,-1.03059,0.01230
0.41763,1.22400,1.48757,9.61500,0.16557,0.40651,0.02098,-3.67964,1.39598,8.98454,0.15964,-1.02010,-0.04921
0.71010,1.23222,1.48708,9.61059,0.15990,0.38287,-0.02094,-3.68002,1.39723,8.99264,0.16502,-1.00095,-0.01804
0.72843,1.23107,1.48250,9.59246,0.13302,0.37621,-0.01169,-3.65999,1.38827,8.98008,0.15553,-0.99668,-0.01153
0.61239,1.24083,1.49952,9.61969,0.12296,0.36066,-0.02901,-3.66718,1.39111,8.99658,0.15527,-1.00015,-0.00576
0.61956,1.19799,1.49247,9.62841,0.12081,0.38119,-0.00291,-3.65505,1.40626,8.97428,0.12976,-0.99912,-0.00457
0.36841,1.21441,1.49657,9.61526,0.15625,0.39357,-0.02067,-3.64227,1.39538,9.02716,0.15888,-0.97573,0.01164
0.69836,1.22146,1.50241,9.62613,0.14774,0.38811,0.02331,-3.60587,1.38569,9.01100,0.18142,-1.01449,0.00651
0.40688,1.20809,1.50201,9.64027,0.17292,0.34250,-0.00248,-3.62130,1.38984,9.01135,0.18160,-0.98313,0.01730
0.62161,1.18217,1.51082,9.60780,0.15807,0.33488,-0.00501,-3.60927,1.42227,9.02003,0.17749,-0.99307,-0.03079
0.75257,1.21090,1.51259,9.61924,0.13253,0.37038,0.00486,-3.61292,1.39872,9.03176,0.15849,-0.98492,0.00923
0.90740,1.18964,1.51256,9.57955,0.16833,0.38290,-0.02419,-3.59489,1.42320,9.01806,0.17080,-0.96567,0.03011
0.43976,1.18973,1.52407,9.61633,0.15638,0.40473,0.00219,-3.59817,1.39295,8.98419,0.14657,-0.98366,0.02137
0.86124,1.18982,1.51117,9.58774,0.15821,0.33286,0.02377,-3.58032,1.42046,8.99212,0.16483,-0.97639,-0.00663
0.80958,1.18847,1.50124,9.63138,0.14596,0.38013,-0.02251,-3.56566,1.41379,9.01065,0.16682,-0.96907,0.00865
0.85442,1.18209,1.51393,9.61718,0.15521,0.38356,0.01575,-3.57789,1.43303,9.03348,0.16146,-0.97902,0.01349
0.56609,1.15760,1.51762,9.65030,0.16466,0.36985,0.01227,-3.55903,1.43193,9.01727,0.19012,-0.98654,-0.02851
0.70948,1.16407,1.50097,9.61316,0.17338,0.34708,-0.01027,-3.52991,1.40274,9.03337,0.14555,-0.96250,-0.01841
0.51809,1.15937,1.51817,9.59089,0.16902,0.37432,-0.00808,-3.53826,1.42795,9.02313,0.14847,-0.91480,0.00897
0.31778,1.17349,1.51667,9.58708,0.16972,0.34823,-0.00939,-3.54212,1.43232,9.04013,0.12785,-0.95380,-0.03020
0.53611,1.16137,1.53598,9.60095,0.18526,0.35887,-0.01892,-3.50932,1.43465,9.02224,0.15567,-0.95861,-0.01099
0.74691,1.15732,1.52333,9.61716,0.18787,0.34334,-0.00134,-3.51097,1.42444,9.03273,0.17016,-0.93416,0.00524
0.44076,1.16916,1.51589,9.61123,0.16851,0.37363,0.00046,-3.50051,1.42216,9.05867,0.16872,-0.94359,-0.00246
0.71430,1.14377,1.53804,9.64374,0.17114,0.33715,0.01122,-3.51011,1.43568,9.06969,0.16000,-0.94437,0.01187
0.45522,1.14185,1.52171,9.62157,0.16965,0.33387,-0.00992,-3.50242,1.43175,9.01851,0.19415,-0.94185,0.00847
0.80756,1.14669,1.53936,9.64465,0.15568,0.35520,-0.00109,-3.47516,1.43381,9.07526,0.12737,-0.98209,-0.00444
0.60092,1.12480,1.53069,9.61108,0.19133,0.36498,-0.01064,-3.44538,1.44196,9.09340,0.15711,-0.92120,0.01238
0.44913,1.13620,1.53468,9.61393,0.11617,0.32639,-0.05352,-3.45999,1.44166,9.04406,0.16971,-0.95991,0.00015
0.77898,1.14192,1.53811,9.61120,0.11508,0.36554,-0.04036,-3.44458,1.43264,9.06381,0.13907,-0.94569,-0.02188
0.48139,1.13020,1.54338,9.60637,0.16510,0.36321,0.00680,-3.43561,1.45750,9.10195,0.15915,-0.95632,-0.01500
0.47241,1.12977,1.52895,9.57466,0.13177,0.35979,-0.03056,-3.41072,1.46350,9.07087,0.15975,-0.88422,-0.00467
0.39145,1.12217,1.56689,9.61883,0.17628,0.32987,-0.01273,-3.42666,1.44329,9.10644,0.18837,-0.90359,-0.00242
0.78898,1.12778,1.55913,9.60372,0.20407,0.36360,-0.02858,-3.41724,1.45035,9.09178,0.17706,-0.91791,0.00219
0.39818,1.13010,1.55339,9.61826,0.17426,0.34935,0.02096,-3.42019,1.43999,9.10868,0.14349,-0.91217,-0.00407
0.53859,1.11048,1.52499,9.63400,0.12516,0.36290,0.00290,-3.40802,1.45331,9.07464,0.15242,-0.93774,0.01468
0.57206,1.11389,1.54308,9.61680,0.16467,0.33684,-0.01592,-3.40371,1.45176,9.06783,0.15809,-0.92371,0.01413
0.84047,1.12150,1.55776,9.65711,0.15444,0.33004,0.03019,-3.36862,1.47250,9.07761,0.13907,-0.91553,0.04402
0.81226,1.09956,1.54289,9.64750,0.14683,0.34117,-0.01240,-3.38423,1.46391,9.08412,0.13654,-0.91691,0.04038
0.50482,1.10489,1.55377,9.65297,0.16939,0.31636,0.01490,-3.37830,1.47034,9.06327,0.17595,-0.87598,0.01188
0.55282,1.09259,1.55983,9.61425,0.19343,0.36830,-0.01426,-3.36695,1.46632,9.12764,0.14890,-0.89980,-0.01264
0.36743,1.09945,1.56151,9.62647,0.22330,0.33977,-0.02552,-3.35210,1.47501,9.08238,0.18834,-0.88343,-0.02467
0.45292,1.09642,1.56979,9.60076,0.19251,0.33835,-0.04994,-3.34844,1.46073,9.09232,0.17699,-0.88644,0.02715
0.82833,1.08181,1.54684,9.59710,0.17613,0.34139,-0.01003,-3.32901,1.46756,9.09948,0.19159,-0.90636,0.00522
0.82290,1.09180,1.56701,9.64350,0.14928,0.34892,-0.00912,-3.32475,1.48210,9.11369,0.10622,-0.90011,0.01585
0.81303,1.08200,1.55836,9.61069,0.13995,0.32282,0.01909,-3.32613,1.48203,9.11419,0.11326,-0.86165,-0.04832
0.50423,1.06858,1.55497,9.63761,0.14390,0.32329,-0.01150,-3.32596,1.49052,9.12832,0.14518,-0.83447,0.00329
0.44683,1.05887,1.56346,9.60318,0.15872,0.31760,-0.00667,-3.31777,1.49513,9.13037,0.15340,-0.85670,-0.01341
0.73160,1.08888,1.56796,9.61400,0.16450,0.32336,-0.01399,-3.30342,1.50091,9.11276,0.14446,-0.87199,0.01351
0.61808,1.07315,1.56534,9.63089,0.18090,0.35228,0.00768,-3.26332,1.48299,9.12027,0.18260,-0.85647,-0.00874
0.75527,1.07244,1.57407,9.60913,0.17875,0.36802,0.01385,-3.31381,1.47646,9.15417,0.16598,-0.85730,-0.00628
0.39432,1.06993,1.57334,9.64407,0.18698,0.33104,-0.01145,-3.26991,1.48937,9.12005,0.15060,-0.85492,-0.02285
0.50239,1.05733,1.55918,9.63988,0.14757,0.30037,0.00087,-3.27109,1.48466,9.10184,0.18982,-0.88309,0.02584
0.69351,1.06689,1.56590,9.60908,0.15275,0.34340,0.02951,-3.26790,1.50301,9.11744,0.12476,-0.90108,-0.00392
0.80210,1.05976,1.57145,9.66871,0.13909,0.35146,-0.02126,-3.25491,1.48535,9.13656,0.15085,-0.87016,-0.00728
0.33145,1.04753,1.56973,9.66675,0.12710,0.32505,-0.00298,-3.23653,1.50156,9.17174,0.14699,-0.88177,-0.02104
0.47562,1.05256,1.58943,9.62696,0.14757,0.33471,-0.00391,-3.23377,1.48345,9.14199,0.19051,-0.84950,0.00661
0.90703,1.04020,1.57904,9.61306,0.16900,0.35419,0.00297,-3.20952,1.50095,9.13880,0.15838,-0.84467,-0.00776
0.80432,1.03060,1.59551,9.63706,0.17797,0.30986,0.02366,-3.21805,1.49441,9.15657,0.13340,-0.85474,0.01083
0.84751,1.04541,1.58229,9.62792,0.13294,0.31060,0.03350,-3.21289,1.50658,9.16408,0.21189,-0.86459,-0.00178
0.54369,1.04285,1.58718,9.62858,0.13044,0.30346,-0.03946,-3.20944,1.51061,9.15607,0.17182,-0.84523,-0.00900
0.38177,1.03442,1.59907,9.64158,0.16055,0.32559,0.00144,-3.18793,1.50079,9.14335,0.18527,-0.84093,0.00615
0.62506,1.02660,1.58676,9.61071,0.17222,0.32091,-0.01091,-3.17477,1.51856,9.13705,0.12205,-0.83306,0.00260
0.70952,1.03661,1.57195,9.61189,0.16381,0.33650,0.01959,-3.16285,1.52199,9.13843,0.09626,-0.83755,0.03111
0.71230,1.03464,1.59543,9.65497,0.16005,0.29906,-0.04015,-3.16469,1.51629,9.12600,0.15665,-0.84371,0.01703
0.84449,1.03150,1.59258,9.62170,0.16940,0.30394,0.01496,-3.16335,1.51386,9.16577,0.14253,-0.83609,-0.03404
0.50283,1.02350,1.58334,9.60818,0.18343,0.28794,0.03084,-3.16024,1.51915,9.17997,0.12796,-0.82914,0.01937
0.77457,0.99347,1.59130,9.62586,0.13523,0.27990,-0.00121,-3.16270,1.51083,9.20540,0.15951,-0.88651,0.04883
0.74683,1.00327,1.59252,9.62706,0.15071,0.29305,0.01320,-3.12451,1.52223,9.16075,0.20118,-0.79515,-0.03984
0.50685,0.99685,1.60954,9.65200,0.16206,0.33184,0.00941,-3.12932,1.51786,9.14953,0.16227,-0.82650,-0.04419
0.46586,1.01594,1.60314,9.62625,0.17154,0.31018,0.00487,-3.12238,1.51575,9.15122,0.15258,-0.83107,0.03010
0.68964,0.99848,1.59722,9.61413,0.14098,0.33612,0.01258,-3.12470,1.53892,9.20661,0.14617,-0.79955,-0.01077
0.60178,0.99578,1.60996,9.60995,0.19441,0.31544,0.03326,-3.08768,1.51319,9.18869,0.10693,-0.79818,-0.01175
0.39919,0.98640,1.58359,9.61478,0.13524,0.29948,-0.02046,-3.09187,1.52670,9.17234,0.15760,-0.81319,-0.00075
0.46784,0.98832,1.61277,9.59488,0.17438,0.27287,-0.00354,-3.08471,1.52955,9.16481,0.17181,-0.80967,0.00296
0.41904,0.99346,1.61311,9.64532,0.14902,0.31051,-0.01067,-3.07793,1.52930,9.18444,0.15976,-0.82706,0.01889
0.63673,0.98383,1.59420,9.61425,0.11685,0.32592,0.01098,-3.07067,1.54178,9.22187,0.13753,-0.80384,-0.00554
0.62650,0.99948,1.61986,9.62905,0.14203,0.32652,-0.01347,-3.06306,1.53699,9.22250,0.14206,-0.80720,-0.01535
0.80894,0.98565,1.59350,9.62914,0.17885,0.33795,-0.00259,-3.05544,1.55910,9.17926,0.13173,-0.82927,0.05699
0.79605,0.98738,1.61289,9.62786,0.19599,0.29901,0.04164,-3.04077,1.53816,9.18548,0.14560,-0.80204,0.00448
0.80383,0.96854,1.61703,9.63309,0.16341,0.33240,-0.04063,-3.06612,1.55025,9.20558,0.19143,-0.79769,0.01902
0.79646,0.97787,1.62458,9.60264,0.19187,0.30381,0.00169,-3.03730,1.54247,9.17281,0.11958,-0.77262,-0.01605
0.36101,0.95739,1.62683,9.62418,0.19888,0.29874,-0.00390,-3.03410,1.55917,9.20028,0.17273,-0.75982,-0.03681
0.81773,0.97081,1.62569,9.64720,0.12819,0.28375,-0.03627,-3.03422,1.56190,9.22828,0.14116,-0.80314,-0.00727
0.58909,0.96207,1.62665,9.65517,0.17334,0.28373,-0.03632,-3.02039,1.54190,9.18387,0.16566,-0.78911,0.00218
0.26748,0.97355,1.63945,9.59994,0.15513,0.28819,0.01352,-3.01035,1.54804,9.23153,0.16299,-0.81820,-0.00535
0.49941,0.96650,1.63187,9.63017,0.17053,0.30306,0.01377,-3.00422,1.54085,9.20288,0.12665,-0.78809,-0.00562
0.37971,0.95707,1.63140,9.62341,0.15261,0.27783,-0.01214,-3.00446,1.57187,9.20125,0.15909,-0.74392,0.02438
0.83924,0.95059,1.63578,9.61451,0.11923,0.30725,0.02775,-3.00177,1.54215,9.21397,0.18801,-0.77563,-0.03479
0.84265,0.94612,1.63102,9.63875,0.13427,0.28704,-0.01292,-2.97293,1.52819,9.21828,0.16601,-0.76890,0.01803
0.48526,0.94584,1.64209,9.62474,0.14756,0.31204,0.01200,-2.96250,1.57350,9.25494,0.15259,-0.74256,-0.03802
0.86486,0.93383,1.62950,9.62258,0.15597,0.28895,-0.00142,-2.97135,1.56859,9.21842,0.14986,-0.75464,-0.00091
0.38060,0.95238,1.64225,9.61990,0.15592,0.27249,-0.00879,-2.96446,1.58069,9.20677,0.19853,-0.76406,0.03156
0.73674,0.93774,1.63057,9.61221,0.15241,0.27406,0.02974,-2.95192,1.57979,9.21841,0.17315,-0.79663,-0.00659
0.63795,0.94696,1.62817,9.62034,0.16637,0.29822,-0.00488,-2.94464,1.55290,9.22041,0.15431,-0.73403,-0.00651
0.51981,0.92763,1.62778,9.60747,0.15255,0.28883,-0.01829,-2.94000,1.56953,9.21386,0.19348,-0.76635,-0.01145
0.32283,0.92467,1.65622,9.62175,0.14653,0.31057,0.02002,-2.92736,1.56696,9.25164,0.15488,-0.74596,-0.02895
0.81180,0.92824,1.64231,9.65123,0.18203,0.29555,0.00024,-2.93372,1.57061,9.19791,0.15624,-0.80739,0.00086
0.78572,0.92938,1.62850,9.58910,0.13772,0.26827,-0.00149,-2.91701,1.58201,9.22572,0.13561,-0.76206,-0.02458
0.83052,0.91978,1.64214,9.63075,0.13944,0.28591,0.02392,-2.92299,1.56955,9.24809,0.13768,-0.74663,-0.00384
0.65107,0.92203,1.65057,9.64292,0.15539,0.26410,0.00272,-2.89063,1.56586,9.24300,0.17252,-0.74558,0.00840
0.43142,0.91521,1.65532,9.62625,0.16356,0.31940,-0.03777,-2.87923,1.58147,9.25094,0.19971,-0.77300,0.00049
0.84912,0.91614,1.61234,9.59345,0.16376,0.27909,0.03378,-2.88883,1.57636,9.26114,0.16791,-0.74187,0.00903
0.57834,0.90173,1.66234,9.64921,0.16582,0.31207,-0.05108,-2.89401,1.60186,9.25600,0.17758,-0.78115,-0.03665
0.57174,0.91454,1.65002,9.61252,0.15601,0.28961,-0.00047,-2.88323,1.58517,9.21639,0.17554,-0.74235,-0.01437
0.39283,0.88673,1.65722,9.65637,0.16827,0.30896,0.00140,-2.86452,1.59473,9.21658,0.16995,-0.77102,-0.00147
0.61948,0.89836,1.65307,9.63930,0.20039,0.30964,0.00700,-2.85355,1.59114,9.25155,0.18888,-0.75137,-0.02580
0.62756,0.89407,1.65545,9.64675,0.15597,0.26833,-0.01473,-2.84434,1.57088,9.23656,0.15342,-0.72360,0.01962
0.74096,0.88603,1.64702,9.62316,0.14600,0.30049,-0.00813,-2.84772,1.59546,9.27947,0.15106,-0.74629,0.03698
0.50170,0.91294,1.66638,9.64199,0.14241,0.25344,0.00480,-2.82574,1.60059,9.26725,0.14096,-0.70481,-0.01505
0.67274,0.90595,1.66122,9.60812,0.15227,0.28324,0.03085,-2.81171,1.62087,9.26346,0.19002,-0.70452,0.00643
0.63356,0.87592,1.65818,9.60524,0.15764,0.28678,-0.00150,-2.82776,1.60645,9.28013,0.13629,-0.70998,-0.02364
0.73290,0.88983,1.65021,9.62540,0.14444,0.29380,0.00157,-2.80723,1.59000,9.23061,0.15051,-0.72434,-0.02020
0.59796,0.88371,1.64670,9.63418,0.16720,0.24856,-0.01475,-2.81361,1.59441,9.25368,0.12328,-0.75233,0.02450
0.41127,0.88857,1.67710,9.63139,0.16281,0.25056,0.02700,-2.80457,1.61998,9.25504,0.17971,-0.70788,-0.00128
0.62878,0.86436,1.66803,9.63981,0.13837,0.26325,-0.00077,-2.80890,1.59319,9.27567,0.14928,-0.71424,0.02169
0.32709,0.88802,1.68697,9.63799,0.15563,0.27704,-0.02105,-2.78755,1.62281,9.27166,0.18696,-0.70176,0.02837
0.66313,0.87772,1.67554,9.61594,0.15237,0.25215,-0.01579,-2.78532,1.61658,9.32189,0.13663,-0.70680,0.00766
0.29482,0.88384,1.67506,9.59779,0.16783,0.26287,-0.03286,-2.77318,1.63116,9.27894,0.16858,-0.69424,-0.01001
0.78255,0.85945,1.67939,9.64800,0.14245,0.28162,0.00813,-2.77329,1.63160,9.26905,0.16068,-0.73839,0.01314
0.35997,0.84694,1.68862,9.63055,0.12525,0.23349,0.03652,-2.75859,1.62072,9.27287,0.11753,-0.71375,-0.02035
0.88466,0.85686,1.67189,9.62718,0.16833,0.26160,-0.02350,-2.75372,1.63344,9.28629,0.17872,-0.72700,0.03264
0.35309,0.85561,1.68966,9.63408,0.14991,0.27340,0.02333,-2.73879,1.60897,9.25082,0.16359,-0.68305,-0.01168
0.42771,0.86084,1.68159,9.63250,0.16411,0.24201,-0.01735,-2.75312,1.60778,9.29788,0.16789,-0.69769,-0.02594
0.65314,0.85196,1.67619,9.64243,0.10727,0.28621,0.03980,-2.74455,1.64210,9.26379,0.17304,-0.71116,-0.00700
0.38026,0.83941,1.67065,9.65040,0.14667,0.26182,-0.00602,-2.73229,1.62024,9.29595,0.13977,-0.71233,0.01688
0.78150,0.85302,1.69627,9.60576,0.16184,0.25869,-0.02632,-2.73671,1.60893,9.27099,0.15960,-0.68307,0.01208
0.89302,0.86111,1.68139,9.59833,0.17887,0.25713,-0.01986,-2.71237,1.63132,9.28067,0.12744,-0.70556,0.03623
0.38346,0.83852,1.68851,9.62857,0.16407,0.22919,-0.00861,-2.71252,1.62923,9.29524,0.13160,-0.69266,0.00047
0.82659,0.85090,1.69497,9.61595,0.14424,0.25779,0.00358,-2.70751,1.63476,9.30258,0.14004,-0.67259,0.00858
0.52284,0.85610,1.69809,9.62133,0.14639,0.25085,0.02488,-2.70497,1.63009,9.26036,0.17395,-0.71703,0.02920
0.47507,0.83114,1.69313,9.59946,0.16660,0.23464,-0.00808,-2.69361,1.62149,9.30242,0.15571,-0.68509,0.01722
0.87000,0.82993,1.69163,9.64595,0.18589,0.28127,-0.00663,-2.69009,1.61962,9.30954,0.14594,-0.72818,0.00266
0.35063,0.83566,1.69129,9.61875,0.17489,0.28199,-0.00343,-2.67072,1.64124,9.29215,0.18077,-0.71076,0.00208
0.32587,0.83738,1.69819,9.63151,0.14771,0.27615,-0.01011,-2.68264,1.63885,9.30742,0.17131,-0.69928,-0.00504
0.34818,0.80816,1.72161,9.62103,0.16119,0.22239,-0.00528,-2.68131,1.66992,9.26432,0.12167,-0.69861,0.01985
0.58683,0.82952,1.70423,9.62006,0.15105,0.23797,-0.01958,-2.64873,1.63483,9.31823,0.17503,-0.68487,-0.01143
0.73310,0.80405,1.70519,9.63787,0.12766,0.28462,-0.02336,-2.65491,1.64436,9.28903,0.14277,-0.66907,0.01227
0.70847,0.81027,1.69710,9.61397,0.12430,0.28875,-0.00082,-2.63628,1.63006,9.29306,0.12587,-0.69035,-0.00875
0.64701,0.81616,1.70369,9.63298,0.15696,0.25614,0.00429,-2.63140,1.63869,9.30024,0.15154,-0.66072,-0.00954
0.28433,0.81509,1.72542,9.62082,0.15613,0.24282,-0.00202,-2.65203,1.63652,9.30262,0.18898,-0.68185,-0.00469
0.54748,0.82043,1.71085,9.62221,0.13080,0.26490,0.01239,-2.64425,1.66272,9.26681,0.18943,-0.65782,-0.00783
0.48363,0.79916,1.71588,9.61418,0.12664,0.26488,-0.00947,-2.62933,1.64448,9.34295,0.19704,-0.65414,0.00524
0.69889,0.80976,1.69311,9.63678,0.12713,0.21282,0.01672,-2.59899,1.64930,9.28353,0.14788,-0.64209,-0.00654
0.66571,0.80423,1.71612,9.59500,0.17759,0.24505,0.01067,-2.60022,1.65620,9.29360,0.15578,-0.66985,-0.04085
0.50106,0.80055,1.71819,9.59559,0.17744,0.27309,0.00812,-2.60516,1.65970,9.29165,0.15546,-0.68274,-0.03141
0.49857,0.79326,1.71552,9.66348,0.13771,0.22258,-0.01581,-2.59552,1.65082,9.30678,0.14408,-0.66400,0.00855
0.56828,0.79957,1.72158,9.62729,0.12173,0.28053,0.01298,-2.59368,1.66143,9.30319,0.15991,-0.64396,0.00333
0.80765,0.79431,1.72129,9.59244,0.14797,0.21701,-0.00391,-2.60208,1.65222,9.30651,0.15513,-0.64551,-0.00187
0.78250,0.79444,1.72032,9.61086,0.15494,0.25193,-0.00466,-2.59113,1.65889,9.33199,0.12791,-0.60544,-0.01176
0.37809,0.80107,1.73560,9.62452,0.14994,0.25276,0.00575,-2.56746,1.66224,9.31676,0.18516,-0.65360,-0.03507
0.45488,0.77223,1.72363,9.62992,0.18961,0.21627,-0.01413,-2.56643,1.66334,9.28607,0.16473,-0.60988,-0.03705
0.66319,0.77213,1.72144,9.61379,0.18375,0.24972,0.00564,-2.55586,1.66878,9.34064,0.16485,-0.60701,-0.01467
0.81723,0.78322,1.71260,9.58320,0.16059,0.21649,0.01009,-2.54790,1.68192,9.31951,0.11848,-0.63446,0.00065
0.40886,0.77627,1.73889,9.60923,0.15677,0.25749,-0.00634,-2.54401,1.67955,9.31694,0.12933,-0.62982,-0.00342
0.78662,0.77887,1.73521,9.63860,0.15169,0.22896,-0.00777,-2.53477,1.68648,9.33449,0.12666,-0.64272,0.00176
0.33181,0.77749,1.74065,9.62863,0.18417,0.25855,0.04719,-2.52077,1.70275,9.30548,0.15991,-0.65079,0.01339
0.34393,0.78421,1.72429,9.62507,0.14389,0.21577,0.02601,-2.52368,1.69031,9.33567,0.15968,-0.60539,0.01381
0.50540,0.76868,1.73958,9.60144,0.17570,0.24416,0.00792,-2.52620,1.67917,9.34638,0.12513,-0.61842,-0.00562
0.87817,0.78445,1.74912,9.64943,0.19091,0.25874,-0.01645,-2.50821,1.68966,9.31602,0.14076,-0.60142,-0.01756
0.47098,0.75681,1.72981,9.58811,0.15632,0.22817,-0.01734,-2.51172,1.69215,9.32747,0.17748,-0.65557,0.00847
0.79659,0.76679,1.73905,9.59107,0.15582,0.21877,-0.00747,-2.49383,1.67008,9.33391,0.13332,-0.63208,-0.01958
0.33472,0.75193,1.73826,9.63604,0.13198,0.19449,0.02772,-2.48272,1.68769,9.34744,0.16533,-0.64501,-0.01270
0.40000,0.76878,1.74302,9.63428,0.17297,0.21861,0.04314,-2.48873,1.69115,9.34724,0.16706,-0.58608,-0.01108
0.88061,0.75136,1.74661,9.62662,0.16084,0.21488,0.04410,-2.49076,1.66998,9.34095,0.17090,-0.64308,0.00507
0.73157,0.75679,1.75509,9.62614,0.09129,0.26974,0.00157,-2.49334,1.71932,9.33947,0.12829,-0.59751,0.03283
0.86473,0.77352,1.76439,9.63046,0.12306,0.25007,0.01889,-2.45957,1.68624,9.29946,0.15019,-0.64002,-0.00530
0.77493,0.74690,1.74670,9.65893,0.14019,0.22325,0.01683,-2.47092,1.69920,9.31248,0.17222,-0.61612,0.01701
0.86930,0.72880,1.76466,9.63921,0.15415,0.22156,0.01162,-2.46251,1.70520,9.35361,0.14394,-0.63363,0.03084
0.48482,0.73884,1.76016,9.63922,0.13640,0.26653,-0.00829,-2.45801,1.70613,9.34058,0.17036,-0.60860,0.00240
0.37843,0.74559,1.75046,9.59340,0.13910,0.23186,0.01920,-2.46270,1.69289,9.36224,0.16104,-0.62012,0.01578
0.54211,0.74206,1.74709,9.60960,0.16170,0.22320,-0.01688,-2.45649,1.70396,9.30054,0.16078,-0.57068,0.01064
0.53054,0.72946,1.75563,9.59968,0.15647,0.20863,0.00284,-2.43810,1.72202,9.33464,0.15683,-0.60533,-0.00854
0.43223,0.73133,1.76028,9.65912,0.10287,0.20953,-0.02064,-2.45144,1.71421,9.37975,0.15856,-0.61521,-0.00252
0.78482,0.73950,1.75433,9.62644,0.14661,0.23884,0.00647,-2.42431,1.71362,9.36600,0.14696,-0.59767,0.01217
0.87143,0.73443,1.78784,9.65127,0.14363,0.22030,0.01601,-2.43453,1.69588,9.37261,0.12275,-0.57671,0.01661
0.68894,0.75120,1.76351,9.65189,0.14681,0.21698,-0.00372,-2.40826,1.71030,9.30719,0.14179,-0.61972,0.01869
0.62929,0.73174,1.73641,9.63904,0.13297,0.21403,0.01214,-2.41219,1.71550,9.36459,0.14002,-0.56950,0.02233
0.54055,0.70207,1.75291,9.65748,0.12340,0.20709,-0.01545,-2.41684,1.70060,9.32472,0.18369,-0.60825,0.00455
0.75855,0.72573,1.77247,9.63448,0.14620,0.21471,0.02930,-2.40590,1.72164,9.38998,0.14529,-0.63274,0.05208
0.55591,0.71707,1.77723,9.60705,0.11287,0.21402,-0.01925,-2.37583,1.72712,9.32658,0.14561,-0.63937,0.00767
0.62332,0.72033,1.77949,9.58281,0.11838,0.20107,0.04222,-2.39841,1.73023,9.35638,0.14683,-0.56732,0.00658
0.60566,0.72697,1.75774,9.64768,0.12740,0.20896,0.01614,-2.38036,1.71597,9.34742,0.16860,-0.58982,-0.01969
0.44198,0.71307,1.76782,9.62488,0.13279,0.24251,-0.00118,-2.38820,1.71611,9.36487,0.14754,-0.58208,-0.00985
0.75311,0.71548,1.78474,9.62021,0.14852,0.21474,-0.02979,-2.37480,1.71118,9.35497,0.16295,-0.59805,-0.01262
0.28197,0.71937,1.77081,9.66128,0.20104,0.22945,-0.01914,-2.37059,1.72005,9.35909,0.10520,-0.59303,-0.01125
0.65808,0.71077,1.78955,9.61097,0.18067,0.26135,0.01193,-2.36262,1.72597,9.36530,0.16310,-0.54174,-0.00826
0.39359,0.70861,1.78107,9.65736,0.13925,0.18072,-0.00241,-2.35519,1.72946,9.35294,0.14026,-0.56888,-0.02766
0.55332,0.70878,1.78686,9.60865,0.15948,0.18933,0.01358,-2.32770,1.73118,9.34829,0.16261,-0.56458,0.00326
0.82936,0.71293,1.78610,9.59798,0.13981,0.21774,-0.02894,-2.35680,1.72885,9.33354,0.14169,-0.54054,0.00814
0.41026,0.69907,1.78207,9.62446,0.14023,0.22806,-0.01270,-2.36286,1.75206,9.36396,0.19049,-0.60279,0.00430
0.42617,0.70692,1.78868,9.60291,0.14808,0.22876,-0.01728,-2.31814,1.72566,9.39086,0.12294,-0.56855,0.00264
0.78173,0.68853,1.79878,9.61296,0.13932,0.24739,0.00669,-2.32064,1.73994,9.35151,0.14605,-0.57105,-0.00706
0.36874,0.68304,1.78411,9.61173,0.15593,0.22432,0.01498,-2.33198,1.74554,9.37820,0.15907,-0.56141,-0.01848
0.69130,0.68539,1.78661,9.60618,0.12166,0.25578,-0.00928,-2.31970,1.75166,9.36867,0.14904,-0.54736,-0.01186
0.88014,0.69190,1.80648,9.63066,0.12535,0.22850,0.00362,-2.31272,1.74042,9.37493,0.17046,-0.56128,0.00693
0.71115,0.67446,1.79647,9.60733,0.14788,0.22698,0.00102,-2.30396,1.73683,9.38401,0.19376,-0.57226,0.01442
0.73472,0.67239,1.78378,9.60473,0.12133,0.20862,0.01499,-2.28502,1.72884,9.36210,0.14978,-0.53332,-0.04503
0.48469,0.69547,1.79017,9.61962,0.13102,0.18372,-0.02642,-2.26807,1.73770,9.39480,0.13248,-0.58440,-0.03617
0.89416,0.68225,1.82170,9.61874,0.17612,0.21568,-0.00140,-2.29223,1.74744,9.35861,0.12386,-0.54646,0.03109
0.40636,0.68859,1.78393,9.64202,0.13240,0.18638,-0.01614,-2.29280,1.75594,9.41342,0.13923,-0.55012,0.01294
0.79715,0.68394,1.80541,9.62018,0.12185,0.21907,0.01382,-2.27606,1.75930,9.34230,0.15868,-0.58464,0.00308
0.38203,0.68667,1.78890,9.61422,0.15539,0.22549,-0.00263,-2.27186,1.75514,9.42217,0.17142,-0.55082,0.00435
0.92639,0.65680,1.81616,9.65081,0.13557,0.24596,0.00102,-2.27429,1.75809,9.43262,0.16394,-0.56269,-0.03084
0.42449,0.66245,1.80118,9.63172,0.12416,0.22661,-0.01759,-2.28292,1.75502,9.37719,0.17981,-0.56261,-0.01359
0.64699,0.68332,1.79248,9.61422,0.15644,0.19608,-0.01085,-2.26179,1.77706,9.36606,0.11384,-0.57034,0.01494
0.83313,0.66177,1.81359,9.59785,0.16014,0.17376,-0.00521,-2.26074,1.76868,9.38968,0.14987,-0.57387,-0.00218
0.75346,0.65605,1.81101,9.60621,0.12829,0.20458,-0.00823,-2.25893,1.77017,9.35397,0.13188,-0.54743,-0.00275
0.76570,0.66423,1.79617,9.62903,0.15963,0.19036,0.00912,-2.24491,1.77309,9.34857,0.16156,-0.56013,-0.01071
0.74146,0.65254,1.81830,9.61112,0.13609,0.22434,0.01504,-2.24967,1.76223,9.35740,0.11529,-0.53150,-0.01056
0.60371,0.64956,1.81122,9.59044,0.17718,0.17482,0.03000,-2.23010,1.77206,9.35007,0.16056,-0.54431,-0.03645
0.42623,0.65138,1.81598,9.61932,0.14389,0.21986,-0.03761,-2.20856,1.76072,9.38288,0.13993,-0.55882,0.03594
0.77989,0.66557,1.82036,9.62677,0.17210,0.20871,-0.02850,-2.23075,1.77099,9.37958,0.15840,-0.50040,-0.02673
0.75172,0.65858,1.81511,9.61420,0.13664,0.23428,0.04948,-2.23528,1.75712,9.39151,0.13707,-0.52842,0.01506
0.52696,0.66398,1.82593,9.61429,0.17070,0.23390,-0.01598,-2.20708,1.77659,9.37388,0.16675,-0.53011,-0.01807
0.65406,0.66752,1.83415,9.60140,0.16780,0.19449,-0.04942,-2.21911,1.77752,9.41042,0.17630,-0.53865,-0.01242
0.51105,0.63662,1.81892,9.62165,0.12906,0.25905,0.00292,-2.20473,1.77261,9.35872,0.14686,-0.51886,0.00420
0.57190,0.65397,1.81242,9.62085,0.16259,0.22229,-0.02326,-2.20580,1.78074,9.41847,0.17372,-0.55259,-0.03870
0.78762,0.64040,1.81343,9.56819,0.13994,0.24068,-0.03829,-2.20825,1.77606,9.40271,0.14861,-0.55235,0.02598
0.62389,0.64107,1.81935,9.62733,0.16686,0.20309,0.02622,-2.18528,1.78735,9.42307,0.14833,-0.51286,-0.01348
0.64605,0.64195,1.82604,9.61015,0.13432,0.17673,-0.00809,-2.17732,1.79615,9.42042,0.13955,-0.54363,-0.01620
0.49247,0.63523,1.82701,9.59653,0.12761,0.20232,-0.00023,-2.18736,1.78797,9.38784,0.16161,-0.52293,-0.00879
0.47568,0.63738,1.81810,9.61278,0.16258,0.19293,-0.02045,-2.17477,1.78902,9.37277,0.15288,-0.51856,-0.03385
0.73965,0.62969,1.83059,9.64365,0.13286,0.17553,-0.01031,-2.18093,1.76975,9.41215,0.14326,-0.49492,-0.00916
0.72093,0.62559,1.85412,9.59623,0.16512,0.22041,-0.00281,-2.16664,1.78251,9.40600,0.13021,-0.53489,0.00664
0.38435,0.63117,1.83819,9.63253,0.15597,0.16156,0.02703,-2.17887,1.79404,9.38533,0.16583,-0.52292,-0.05790
0.64425,0.63515,1.83271,9.62904,0.14561,0.21583,0.02675,-2.14555,1.80468,9.36912,0.10282,-0.52545,-0.01247
0.66421,0.64476,1.83645,9.62976,0.12117,0.19511,-0.00701,-2.12165,1.79288,9.39535,0.12345,-0.51644,-0.01301
0.65185,0.62098,1.84733,9.63101,0.15154,0.17956,0.02324,-2.15331,1.77573,9.38687,0.17730,-0.52792,-0.02478
0.70454,0.61525,1.84204,9.59354,0.14527,0.19121,0.01374,-2.14575,1.80081,9.39487,0.12014,-0.49095,-0.00901
0.44059,0.61712,1.83559,9.60357,0.15371,0.17240,0.00395,-2.11496,1.81526,9.37888,0.17910,-0.50585,-0.01190
0.36963,0.64367,1.83037,9.61428,0.13751,0.19307,-0.00438,-2.12771,1.79437,9.43021,0.19078,-0.47888,-0.02764
0.35230,0.61378,1.85076,9.62695,0.15471,0.20825,-0.01734,-2.12115,1.80375,9.40483,0.15910,-0.50158,0.01179
0.65295,0.60875,1.83008,9.62993,0.15717,0.22709,-0.01451,-2.13391,1.81174,9.41145,0.15287,-0.48081,0.00575
0.88908,0.61958,1.83231,9.64812,0.16352,0.20717,0.00510,-2.11269,1.80853,9.40506,0.16815,-0.48525,-0.02948
0.82112,0.60518,1.83815,9.63565,0.14067,0.19751,0.01252,-2.11001,1.79928,9.39409,0.18073,-0.51158,0.00929
0.64453,0.61459,1.85642,9.63377,0.12515,0.14545,0.00557,-2.10694,1.80369,9.41676,0.14795,-0.51010,-0.00650
0.84659,0.61757,1.84271,9.60610,0.15031,0.17450,-0.01578,-2.09915,1.78568,9.42681,0.15506,-0.48557,0.00902
0.47436,0.60988,1.84516,9.59798,0.15425,0.19426,-0.00978,-2.09513,1.81592,9.39447,0.15547,-0.51836,-0.00133
0.37012,0.60869,1.85908,9.63226,0.15002,0.19114,0.00142,-2.07759,1.81005,9.41246,0.12906,-0.49121,0.04191
0.51578,0.60410,1.83479,9.60575,0.12598,0.16446,0.00166,-2.07578,1.81520,9.41886,0.14918,-0.48104,0.02781
0.32484,0.61602,1.84059,9.59287,0.16434,0.18156,0.00741,-2.09472,1.81854,9.44342,0.14887,-0.46512,-0.01688
0.75829,0.59270,1.83180,9.62826,0.13040,0.17767,0.00114,-2.08532,1.82111,9.41939,0.15308,-0.49666,-0.00089
0.45039,0.60366,1.85824,9.57874,0.12438,0.16193,-0.00177,-2.08580,1.82135,9.41841,0.17678,-0.47569,0.01467
0.47302,0.57972,1.85919,9.63585,0.16121,0.19055,0.01855,-2.07308,1.82692,9.42837,0.14371,-0.48739,0.01737
0.71371,0.60155,1.84135,9.62214,0.18229,0.18338,0.00815,-2.06639,1.82385,9.40021,0.12447,-0.48059,-0.00719
0.76310,0.61954,1.86426,9.61239,0.15227,0.18983,-0.01658,-2.06306,1.81110,9.38783,0.13555,-0.47227,-0.03749
0.83430,0.58246,1.85319,9.61710,0.15854,0.16064,-0.00701,-2.05085,1.81809,9.43213,0.17163,-0.47806,-0.03278
0.88205,0.59109,1.85803,9.61358,0.13750,0.19836,0.00650,-2.06166,1.84164,9.43471,0.15487,-0.48130,-0.01286
0.75435,0.59415,1.87645,9.61216,0.14202,0.17679,-0.02951,-2.05589,1.82853,9.41271,0.12622,-0.45573,-0.03152
0.78872,0.59953,1.84362,9.60582,0.15652,0.19212,-0.01887,-2.05033,1.81381,9.45921,0.14250,-0.46442,0.00066
0.43274,0.58564,1.86328,9.59556,0.12645,0.15328,-0.02510,-2.03160,1.83645,9.40127,0.14833,-0.53373,0.01414
0.74694,0.58447,1.86767,9.59004,0.13576,0.20062,-0.02459,-2.01762,1.83594,9.43373,0.13949,-0.46304,-0.02262
0.33619,0.59400,1.87387,9.60524,0.13846,0.17966,0.00358,-2.02142,1.82980,9.39373,0.12655,-0.47880,0.01655
0.68951,0.56135,1.87823,9.63274,0.11638,0.20354,0.01512,-2.03705,1.84024,9.38077,0.14290,-0.45345,0.01520
0.53793,0.56416,1.88240,9.60249,0.16739,0.18139,0.00517,-2.00907,1.83008,9.41152,0.15359,-0.50186,0.03682
0.38737,0.56478,1.89123,9.64130,0.10031,0.16673,0.01091,-1.99589,1.83153,9.45031,0.13252,-0.46194,-0.03099
0.75510,0.56832,1.88699,9.61708,0.11488,0.19140,0.02324,-2.01941,1.83163,9.43539,0.13775,-0.46228,0.00667
0.74333,0.57169,1.89033,9.63459,0.14140,0.16059,-0.01207,-1.98103,1.84077,9.40056,0.10256,-0.47822,-0.01414
0.60323,0.58057,1.86676,9.59314,0.14914,0.18522,0.00797,-1.99849,1.84925,9.45471,0.16062,-0.48037,-0.01002
0.78058,0.57239,1.88504,9.58763,0.15689,0.18183,0.01782,-1.99795,1.83980,9.45613,0.15983,-0.47960,0.00189
0.48420,0.57071,1.88840,9.58008,0.12967,0.17619,-0.00859,-1.98259,1.84212,9.43227,0.16380,-0.44175,0.00799
0.40278,0.56078,1.88492,9.59159,0.13668,0.18990,-0.02113,-1.98843,1.85838,9.40239,0.15170,-0.45766,0.00900
0.67238,0.57114,1.87743,9.60916,0.17629,0.15852,-0.01467,-1.98491,1.84716,9.38994,0.12031,-0.43753,-0.01039
